SampleIdent,Sample6 ,/
Title1,Dat2rit program ,/
Title2,Sample6 ,/
DiffrType,PW3710,/
DiffrNumber,1,/
Anode, Cu,/
LabdaAlpha1, 1.54060,/
LabdaAlpha2, 1.54439,/
RatioAlpha21, 0.50000,/
DivergenceSlit,Fixed,1,/
ReceivingSlit,0.1,/
MonochromatorUsed,NO  ,/
GeneratorVoltage,  40,/
TubeCurrent,  20,/
FileDateTime,21-janv-2002 09:16:36,/
DataAngleRange,   4.0000, 120.0000,/
ScanStepSize,    0.020,/
ScanType,STEP,/
ScanStepTime,    5.00,/
RawScan
   29285,   31033,   32827,   33370,   31807,   28817,   24784,   20946
   17012,   14388,   12429,   11250,   10467,   10383,   10065,   10161
   10086,    9840,   10105,   10146,   10129,   10107,   10252,   10242
   10187,   10257,   10381,   10400,   10492,   10491,   10397,   10692
   10624,   10816,   10995,   10868,   11084,   11126,   11391,   11524
   11539,   11939,   11931,   12185,   12264,   12526,   12617,   13003
   13309,   13436,   13614,   13912,   14248,   14634,   15108,   15176
   15640,   16158,   16462,   16659,   17560,   17937,   18303,   18775
   19512,   20131,   20742,   21584,   21917,   23137,   24211,   24788
   25180,   26594,   28059,   29057,   30593,   31406,   33107,   34206
   35951,   37832,   39533,   41565,   43575,   45558,   47712,   50078
   53075,   55878,   58687,   61869,   65035,   68812,   71714,   74975
   78022,   80666,   83387,   84905,   86822,   87543,   86826,   86333
   85230,   82437,   80100,   77659,   73870,   71570,   68334,   65416
   62366,   60286,   58108,   55476,   53693,   51043,   49115,   47688
   46152,   44461,   42766,   41186,   40250,   38799,   37978,   36580
   35317,   34027,   33067,   32305,   31169,   30318,   28951,   28351
   28066,   26487,   25847,   25282,   24582,   24101,   23167,   22809
   21724,   21244,   20740,   20178,   19478,   19097,   18383,   18108
   17761,   17088,   16554,   16009,   15468,   15097,   14769,   14324
   13845,   13686,   13270,   13020,   12628,   12443,   11996,   11679
   11336,   11249,   10952,   10644,   10736,   10156,   10114,    9905
    9921,    9717,    9535,    9667,    9379,    9521,    9284,    9148
    9454,    9200,    9410,    9576,    9991,   10141,   10868,   10918
   12040,   12970,   14505,   16107,   18730,   20580,   22469,   23583
   24514,   24667,   24063,   21783,   19280,   16620,   13999,   11390
    9491,    8149,    7172,    6400,    5956,    5777,    5607,    5379
    5177,    5126,    4957,    5013,    4942,    4841,    4789,    4794
    4653,    4562,    4591,    4730,    4578,    4474,    4425,    4323
    4442,    4469,    4402,    4428,    4397,    4468,    4496,    4574
    4506,    4300,    4521,    4504,    4525,    4520,    4490,    4511
    4599,    4650,    4836,    5094,    5115,    5251,    5395,    5478
    5705,    5893,    6357,    6644,    7125,    8023,    8833,    9485
   10515,   12069,   13460,   15081,   17181,   20685,   24636,   28730
   31550,   35100,   40601,   41921,   39265,   34766,   28914,   21861
   15466,    9901,    6719,    4785,    3986,    3564,    3582,    3454
    3465,    3409,    3269,    3286,    3339,    3289,    3207,    3216
    3270,    3221,    3165,    3087,    3151,    3198,    3250,    3165
    3073,    3132,    3017,    3075,    3015,    2979,    3157,    3069
    2993,    2961,    2917,    2967,    3134,    3019,    3033,    3036
    3055,    2969,    3084,    3016,    2962,    3039,    3075,    2928
    3059,    2979,    2925,    2945,    2920,    2866,    2942,    2907
    2955,    2983,    2931,    2843,    2884,    2905,    2919,    2916
    2807,    2912,    2845,    2898,    2892,    2906,    3018,    3063
    3017,    3040,    3213,    3356,    3386,    3724,    3919,    4068
    4238,    4309,    4418,    4618,    4418,    4451,    4145,    4068
    3990,    3734,    3686,    3408,    3342,    3182,    2942,    2879
    2813,    2835,    2653,    2871,    2757,    2682,    2762,    2630
    2673,    2661,    2624,    2673,    2737,    2633,    2725,    2687
    2758,    2613,    2693,    2743,    2733,    2688,    2794,    2844
    2701,    2777,    2744,    2650,    2648,    2656,    2564,    2585
    2618,    2529,    2566,    2520,    2499,    2457,    2504,    2526
    2551,    2542,    2535,    2606,    2580,    2572,    2603,    2679
    2806,    2821,    2900,    2814,    2992,    2954,    2976,    3133
    3121,    3249,    3524,    3675,    3930,    4257,    4408,    4754
    5282,    5499,    5946,    6200,    6076,    5939,    5346,    4827
    4172,    3608,    3216,    2821,    2718,    2682,    2501,    2508
    2565,    2559,    2502,    2504,    2508,    2558,    2554,    2491
    2500,    2513,    2609,    2641,    2444,    2568,    2701,    2715
    2671,    2773,    2806,    2708,    2895,    2809,    2755,    2968
    2882,    3030,    3038,    3087,    3147,    3118,    3208,    3516
    3599,    3799,    4158,    4253,    4415,    4657,    4963,    5106
    4970,    5016,    4506,    4178,    3781,    3322,    3127,    3048
    2879,    2841,    2801,    2672,    2754,    2607,    2686,    2684
    2677,    2712,    2760,    2632,    2643,    2567,    2655,    2748
    2644,    2734,    2723,    2592,    2700,    2705,    2699,    2652
    2710,    2716,    2668,    2731,    2735,    2662,    2672,    2677
    2692,    2638,    2647,    2605,    2646,    2604,    2634,    2584
    2623,    2647,    2599,    2635,    2619,    2665,    2587,    2577
    2678,    2604,    2586,    2682,    2701,    2588,    2636,    2687
    2654,    2580,    2634,    2536,    2625,    2551,    2627,    2580
    2528,    2694,    2509,    2633,    2575,    2642,    2626,    2679
    2769,    2718,    2781,    2770,    2704,    2796,    2962,    2811
    2927,    2939,    3002,    3162,    3308,    3459,    3857,    4077
    4500,    5006,    5712,    6413,    7262,    7952,    8582,    8689
    8762,    8385,    7573,    6389,    5622,    4651,    4054,    3431
    3078,    2914,    2765,    2727,    2710,    2581,    2740,    2711
    2625,    2560,    2597,    2547,    2562,    2661,    2625,    2617
    2544,    2645,    2600,    2640,    2661,    2581,    2568,    2566
    2752,    2564,    2728,    2645,    2641,    2631,    2642,    2786
    2688,    2655,    2737,    2720,    2682,    2631,    2769,    2796
    2749,    2736,    2779,    2761,    2759,    2805,    2866,    2949
    2906,    2841,    2855,    3008,    3087,    3040,    3173,    3225
    3653,    3785,    3868,    4055,    4217,    4462,    4597,    4848
    5328,    5785,    6223,    6668,    7203,    8189,    9254,   11233
   16150,   19649,   20040,   18636,   15379,   12775,   10768,    8581
    7275,    6261,    5672,    5257,    5070,    4870,    4617,    4477
    4372,    4194,    4271,    4177,    4261,    4120,    3981,    4091
    4003,    3910,    3919,    3954,    3811,    3670,    3822,    3673
    3615,    3613,    3528,    3465,    3399,    3442,    3419,    3320
    3263,    3288,    3251,    3176,    3059,    3024,    3204,    3214
    3083,    2983,    3098,    3052,    3013,    3086,    3170,    3060
    3182,    3139,    3302,    3379,    3426,    3564,    3874,    4255
    4723,    5283,    5548,    6128,    6677,    7108,    8112,    8108
    7648,    7616,    6846,    5995,    5482,    4979,    4741,    4887
    5114,    5403,    5771,    6321,    7015,    7566,    8266,    8554
    9019,    9261,    9150,    9245,    9387,    9281,    9115,    8945
    8997,    8793,    8854,    8517,    8337,    7927,    7480,    7079
    6814,    6314,    6352,    6164,    6011,    5896,    5919,    6034
    5864,    6021,    6001,    6164,    6394,    6626,    7001,    7186
    7456,    7521,    7561,    7257,    7255,    6900,    6607,    6193
    5982,    5819,    5819,    5575,    5740,    5802,    6081,    6538
    7087,    7842,    8453,    9429,   11039,   12925,   15604,   19274
   23460,   27898,   32315,   35257,   37121,   36374,   35007,   31111
   25561,   19966,   14924,   11035,    7968,    6395,    5326,    4757
    4434,    4443,    4361,    4142,    4185,    4032,    4181,    4090
    3942,    4057,    4056,    4067,    4008,    4116,    4217,    4301
    4025,    4121,    4272,    4131,    4102,    4006,    4030,    4042
    3927,    3901,    3881,    3794,    3780,    3706,    3622,    3658
    3485,    3636,    3529,    3665,    3470,    3455,    3571,    3480
    3556,    3448,    3440,    3469,    3472,    3557,    3581,    3470
    3516,    3558,    3564,    3563,    3761,    3779,    3780,    3634
    3749,    3740,    3647,    3735,    3783,    3672,    3617,    3584
    3721,    3653,    3665,    3752,    3806,    3866,    4048,    4267
    4450,    4619,    4795,    5108,    5484,    5900,    6574,    6846
    7267,    7729,    7880,    8631,    9287,   10632,   11974,   13025
   13108,   12144,   11255,    9807,    7882,    6591,    5576,    4895
    4685,    4524,    4686,    5126,    5305,    5804,    6204,    6669
    7576,    8603,    9664,   11240,   12007,   12179,   11883,   10914
    9957,    9012,    8240,    7361,    6264,    5381,    4898,    4315
    4092,    3923,    4013,    4008,    4038,    4027,    3903,    3866
    4095,    4043,    4077,    4042,    4005,    4089,    4236,    4210
    4187,    4328,    4232,    4369,    4411,    4405,    4514,    4587
    4645,    4815,    4610,    4990,    5134,    5154,    5288,    5426
    5518,    6018,    6278,    6738,    7466,    8456,    9966,   11209
   13126,   15005,   17088,   18443,   19121,   19487,   18628,   17194
   15576,   13702,   12090,   10757,    9596,    8902,    8276,    7834
    7680,    7385,    7044,    6962,    6734,    6727,    6802,    6478
    6584,    6652,    6862,    7087,    7886,    8410,    9234,    9860
   11168,   12523,   14470,   15656,   15839,   16136,   15605,   15036
   13480,   11920,   10785,    9726,    8727,    7784,    7427,    6784
    6403,    5974,    5567,    5392,    5202,    4761,    4816,    4762
    4501,    4418,    4401,    4461,    4435,    4414,    4297,    4329
    4258,    4332,    4260,    4235,    4345,    4224,    4275,    4278
    4318,    4287,    4353,    4323,    4294,    4228,    4267,    4213
    4329,    4246,    4384,    4508,    4666,    4749,    5052,    5281
    5614,    6287,    6961,    7929,    8954,    9585,    9882,    9847
    9341,    8101,    7191,    6325,    5565,    4877,    4506,    4278
    4059,    4100,    4046,    3968,    4027,    4004,    3954,    3841
    3831,    3830,    3849,    4067,    3899,    3933,    3964,    3795
    3971,    3813,    4024,    4033,    4080,    4160,    4279,    4569
    4516,    4648,    4831,    4634,    4881,    4771,    4741,    4604
    4549,    4349,    4166,    4063,    4060,    3989,    4016,    4035
    3926,    3958,    3931,    3843,    3864,    3948,    3909,    4011
    3951,    3957,    3875,    3908,    4003,    4003,    3988,    3924
    3870,    3929,    4014,    4077,    4051,    3960,    4102,    4107
    4191,    4113,    4424,    4344,    4437,    4677,    5043,    5352
    5872,    6261,    6805,    7182,    7183,    7146,    6990,    6493
    6059,    5795,    5406,    5417,    5163,    5142,    5102,    5551
    5622,    5712,    6315,    6954,    7821,    8197,    8882,    9105
   10254,   10780,   11311,   12235,   13621,   15326,   16767,   17496
   18114,   17791,   17275,   15926,   14253,   12753,   11348,   10119
    9177,    8553,    7897,    7490,    7272,    7114,    7038,    6888
    6744,    6691,    6639,    6577,    6644,    6543,    6396,    6700
    6536,    6428,    6473,    6334,    6293,    6269,    6303,    6302
    6448,    6355,    6370,    6340,    6394,    6294,    6305,    6525
    6561,    6549,    6613,    6470,    6594,    6727,    6819,    6771
    6826,    6827,    6868,    6776,    6831,    7091,    7152,    7005
    7147,    7223,    7288,    7327,    7435,    7520,    7558,    7521
    7716,    7644,    7834,    7736,    7912,    8009,    8070,    8078
    8136,    8331,    8263,    8260,    8517,    8401,    8682,    8634
    8684,    8933,    9141,    9234,    9416,    9765,    9837,   10327
   10772,   11387,   11781,   12689,   12804,   12939,   12610,   11898
   11163,   10327,    9198,    8577,    8030,    7495,    7060,    6958
    6907,    6938,    7117,    7433,    7920,    8692,    9705,   11225
   13585,   17048,   21232,   26414,   30887,   35708,   40560,   42781
   41538,   38483,   34977,   31211,   26369,   21084,   16817,   13646
   11555,   10666,   10486,   11113,   12392,   14194,   15444,   16789
   17150,   16963,   15806,   14342,   12961,   11608,   10092,    8796
    7977,    7069,    6438,    5704,    5390,    4848,    4545,    4365
    4094,    4031,    4111,    3917,    3865,    3838,    3931,    4040
    4249,    4333,    4432,    4491,    4665,    4712,    4735,    4873
    4749,    4506,    4584,    4412,    4390,    4017,    4031,    3902
    3793,    3752,    3735,    3722,    3761,    3708,    3802,    3735
    3877,    3669,    3651,    3630,    3642,    3637,    3497,    3562
    3513,    3483,    3608,    3640,    3765,    3919,    4030,    4104
    4479,    4828,    5462,    5638,    6105,    6499,    6376,    6128
    5958,    5627,    5203,    4844,    4494,    4070,    4027,    3710
    3686,    3579,    3519,    3411,    3351,    3365,    3299,    3160
    3310,    3314,    3246,    3217,    3245,    3179,    3180,    3166
    3212,    3116,    3178,    3156,    3102,    3080,    3028,    3099
    3039,    3207,    3242,    3258,    3403,    3574,    3865,    4142
    4603,    4983,    5801,    5998,    6237,    6153,    6352,    6035
    5733,    5506,    5138,    4857,    4426,    4290,    4123,    4032
    3804,    3634,    3602,    3691,    3673,    3661,    3652,    3563
    3493,    3425,    3495,    3404,    3479,    3330,    3473,    3578
    3572,    3711,    3692,    3766,    4000,    4114,    4219,    4368
    4498,    4647,    4685,    4869,    5014,    5155,    5055,    5139
    5373,    5376,    5375,    5530,    5604,    5567,    5660,    5800
    5870,    5811,    6152,    6484,    6939,    7680,    8582,    9555
   10036,   10693,   10918,   11108,   10411,   10035,    9481,    8590
    7760,    7214,    6876,    6461,    6153,    5948,    5982,    5991
    5839,    5948,    6086,    6186,    6326,    6520,    6572,    6522
    6659,    6517,    6551,    6328,    6044,    6137,    6010,    5894
    5829,    5716,    5605,    5549,    5710,    5643,    5700,    5803
    5660,    5826,    5709,    5603,    5638,    5663,    5592,    5476
    5620,    5647,    5686,    5649,    5699,    5762,    5848,    5722
    6187,    6473,    6292,    6568,    6977,    7619,    8160,    8788
    9919,   11108,   12468,   12877,   12268,   12127,   12524,   12554
   11141,   10514,   10036,    9853,   10019,    9499,    8429,    7795
    7720,    7728,    7393,    6940,    6879,    6769,    6880,    6860
    6871,    6675,    6610,    6375,    6193,    5884,    5777,    5568
    5282,    5281,    5033,    5042,    4856,    5043,    4958,    4942
    4859,    4818,    4825,    4794,    4648,    4736,    4754,    4560
    4500,    4511,    4419,    4455,    4412,    4393,    4327,    4463
    4417,    4427,    4674,    4447,    4885,    4738,    4948,    5175
    5193,    5147,    4936,    5007,    4882,    4749,    4650,    4556
    4484,    4201,    4216,    4132,    4219,    4171,    4095,    4155
    4092,    4188,    4120,    4032,    4185,    4155,    4069,    4061
    3948,    4013,    4088,    4029,    3978,    3902,    3972,    4065
    3892,    3955,    3958,    3922,    4004,    3995,    3906,    3933
    3888,    3822,    3870,    3950,    3974,    3944,    3892,    3943
    3943,    3856,    4084,    3986,    3993,    4053,    4017,    4006
    4069,    4059,    4237,    4085,    4111,    4102,    4062,    4172
    3890,    3909,    3926,    3805,    3982,    3937,    3928,    4193
    4292,    4476,    4506,    4403,    4498,    4402,    4213,    4283
    4073,    3878,    3791,    3775,    3744,    3730,    3737,    3611
    3740,    3669,    3758,    3783,    3883,    4012,    4033,    4274
    4380,    4437,    4533,    4541,    4551,    4465,    4339,    4408
    4273,    4259,    4358,    4434,    4761,    4943,    5204,    5554
    5932,    5959,    5747,    5670,    5285,    5279,    4972,    4700
    4354,    4366,    4078,    4040,    3850,    3829,    3816,    4050
    3946,    4242,    4163,    4315,    4355,    4232,    4293,    4000
    3979,    3951,    3838,    3726,    3651,    3561,    3497,    3467
    3484,    3495,    3543,    3379,    3394,    3462,    3384,    3280
    3379,    3298,    3468,    3430,    3346,    3325,    3385,    3321
    3304,    3280,    3272,    3353,    3334,    3326,    3440,    3382
    3434,    3381,    3548,    3525,    3567,    3653,    3531,    3504
    3481,    3403,    3392,    3424,    3373,    3301,    3343,    3252
    3237,    3304,    3218,    3238,    3245,    3364,    3142,    3246
    3198,    3217,    3325,    3311,    3325,    3256,    3440,    3444
    3682,    3635,    3564,    3615,    3511,    3453,    3556,    3420
    3417,    3316,    3371,    3451,    3326,    3466,    3516,    3517
    3415,    3517,    3485,    3400,    3504,    3370,    3450,    3330
    3323,    3400,    3356,    3509,    3438,    3469,    3454,    3350
    3298,    3489,    3396,    3447,    3434,    3503,    3653,    3666
    3767,    3759,    3664,    3657,    3827,    3721,    3561,    3611
    3513,    3551,    3423,    3416,    3438,    3531,    3423,    3303
    3371,    3363,    3411,    3408,    3342,    3495,    3331,    3425
    3563,    3382,    3497,    3508,    3604,    3704,    3813,    3948
    4000,    4176,    4334,    4485,    4483,    4400,    4269,    4327
    4381,    4231,    4261,    4116,    4114,    3982,    3969,    3790
    3764,    3902,    3887,    3924,    4068,    3992,    4029,    3889
    4004,    3910,    3950,    3752,    3782,    3772,    3581,    3597
    3673,    3628,    3605,    3731,    3993,    4241,    4691,    5218
    5539,    6039,    6478,    6748,    7061,    6746,    6662,    6380
    5933,    5714,    5043,    4720,    4417,    4054,    3570,    3470
    3258,    3127,    3092,    2978,    3032,    3027,    2900,    2928
    2909,    2976,    2866,    2983,    2929,    2959,    2986,    3159
    3209,    3192,    3126,    3133,    3154,    3105,    2989,    3061
    3008,    2869,    2912,    2854,    2779,    2707,    2708,    2642
    2760,    2646,    2690,    2709,    2675,    2688,    2629,    2572
    2556,    2732,    2591,    2507,    2553,    2683,    2589,    2605
    2587,    2610,    2631,    2456,    2614,    2599,    2638,    2670
    2591,    2582,    2654,    2630,    2684,    2682,    2657,    2644
    2737,    2911,    2969,    3149,    2946,    2915,    2785,    2858
    2953,    2887,    2820,    2731,    2749,    2672,    2772,    2710
    2875,    2840,    2803,    2734,    2683,    2647,    2651,    2687
    2509,    2470,    2405,    2429,    2310,    2343,    2344,    2299
    2365,    2324,    2297,    2378,    2330,    2372,    2281,    2261
    2360,    2208,    2326,    2321,    2230,    2288,    2220,    2244
    2156,    2187,    2188,    2125,    2150,    2120,    2196,    2213
    2169,    2134,    2164,    2177,    2195,    2241,    2142,    2134
    2180,    2224,    2146,    2111,    2096,    2113,    2123,    2129
    2178,    2158,    2146,    2083,    2221,    2040,    2158,    2214
    2177,    2225,    2189,    2199,    2222,    2332,    2380,    2399
    2375,    2500,    2628,    2653,    2641,    2703,    2643,    2555
    2595,    2506,    2379,    2398,    2279,    2398,    2301,    2161
    2244,    2231,    2228,    2249,    2195,    2137,    2302,    2208
    2207,    2271,    2283,    2198,    2192,    2091,    2185,    2187
    2126,    2124,    2138,    2200,    2150,    2093,    2108,    2102
    2168,    2287,    2301,    2331,    2373,    2573,    2647,    2942
    3242,    3417,    3343,    3168,    3171,    3074,    3056,    2986
    2795,    2602,    2552,    2441,    2243,    2189,    2159,    2211
    2247,    2182,    2108,    2139,    2024,    2117,    1972,    2057
    2087,    2062,    2072,    2054,    2032,    2114,    2090,    2111
    2087,    1998,    2096,    2089,    2140,    2086,    2124,    2135
    2128,    2203,    2139,    2214,    2226,    2403,    2602,    2749
    3086,    3438,    3648,    3891,    3929,    4179,    4598,    5296
    5451,    5212,    4709,    4453,    4183,    4429,    4548,    4303
    4059,    3773,    3419,    3330,    3070,    2986,    2836,    2799
    2618,    2530,    2433,    2549,    2566,    2461,    2192,    2331
    2354,    2475,    2448,    2544,    2503,    2456,    2457,    2458
    2427,    2543,    2422,    2450,    2412,    2406,    2436,    2319
    2276,    2386,    2381,    2430,    2359,    2546,    2542,    2528
    2423,    2490,    2490,    2452,    2595,    2532,    2450,    2442
    2360,    2340,    2211,    2276,    2278,    2267,    2249,    2232
    2233,    2124,    2202,    2201,    2299,    2164,    2224,    2192
    2311,    2213,    2316,    2359,    2495,    2633,    2942,    3383
    4020,    4545,    5198,    5826,    6295,    6523,    6674,    6862
    6967,    7079,    6984,    6688,    6474,    6032,    5784,    5604
    5518,    4807,    4417,    4019,    3753,    3592,    3532,    3451
    3147,    2745,    2736,    2625,    2492,    2408,    2372,    2355
    2179,    2270,    2266,    2393,    2325,    2439,    2423,    2488
    2522,    2496,    2529,    2463,    2459,    2376,    2480,    2413
    2343,    2352,    2293,    2222,    2201,    2233,    2111,    2148
    2185,    2137,    2170,    2169,    2277,    2350,    2475,    2597
    2838,    2973,    3151,    3262,    3317,    3532,    3600,    3703
    3750,    3656,    3418,    3319,    3139,    3098,    2927,    2848
    2654,    2503,    2371,    2378,    2293,    2269,    2177,    2130
    2193,    2136,    2133,    2134,    2105,    2180,    2208,    2268
    2145,    2179,    2298,    2261,    2331,    2350,    2439,    2487
    2639,    2741,    2844,    3029,    3029,    3083,    3193,    3092
    3293,    3368,    3232,    3265,    3297,    3323,    3178,    3289
    3149,    3228,    3308,    3200,    3223,    3254,    3207,    3213
    3094,    3099,    3135,    3172,    3041,    3087,    3143,    3227
    3370,    3366,    3621,    4101,    4428,    4662,    5070,    5455
    5757,    5952,    6298,    5847,    5410,    4987,    4663,    4484
    4372,    4120,    3918,    3512,    3280,    3002,    2922,    2774
    2725,    2540,    2697,    2733,    2648,    2753,    2693,    2740
    2654,    2743,    2723,    2746,    2701,    2664,    2644,    2683
    2654,    2699,    2651,    2723,    2988,    3069,    3206,    3564
    3600,    3895,    3973,    3975,    3975,    3873,    3859,    3992
    4067,    3787,    3609,    3482,    3468,    3280,    3133,    3042
    3086,    2782,    2749,    2761,    2787,    2652,    2636,    2559
    2647,    2612,    2895,    3127,    3104,    3235,    3105,    3115
    3158,    3094,    3056,    3088,    3238,    3294,    3235,    3004
    2923,    2928,    2893,    2824,    2819,    2701,    2750,    2724
    2671,    2621,    2578,    2504,    2461,    2347,    2438,    2472
    2400,    2378,    2303,    2437,    2382,    2384,    2432,    2315
    2242,    2359,    2322,    2357,    2351,    2364,    2370,    2396
    2355,    2331,    2354,    2260,    2283,    2272,    2340,    2240
    2261,    2213,    2344,    2280,    2270,    2266,    2345,    2401
    2465,    2643,    2801,    3016,    3273,    3416,    3814,    4017
    4271,    4244,    4346,    4297,    3973,    3811,    3688,    3548
    3659,    3629,    3377,    3181,    3175,    2909,    2884,    2827
    2742,    2759,    2715,    2791,    2667,    2663,    2642,    2544
    2562,    2478,    2414,    2420,    2469,    2417,    2448,    2406
    2400,    2299,    2203,    2226,    2215,    2230,    2191,    2157
    2131,    2205,    2254,    2281,    2203,    2252,    2270,    2179
    2212,    2107,    2254,    2265,    2156,    2193,    2153,    2208
    2099,    2148,    2084,    2187,    2171,    2184,    2113,    2115
    2173,    2143,    2170,    2278,    2326,    2182,    2283,    2254
    2278,    2192,    2246,    2217,    2226,    2210,    2204,    2212
    2123,    2163,    2256,    2201,    2250,    2230,    2233,    2355
    2392,    2448,    2497,    2348,    2426,    2458,    2510,    2470
    2349,    2434,    2547,    2496,    2342,    2346,    2324,    2285
    2200,    2239,    2295,    2348,    2306,    2312,    2358,    2337
    2379,    2443,    2402,    2338,    2311,    2436,    2445,    2522
    2458,    2651,    2815,    3072,    3552,    4225,    4524,    4853
    4809,    4583,    4380,    4012,    3725,    3805,    3608,    3550
    3339,    3299,    2921,    2774,    2516,    2306,    2295,    2246
    2267,    2195,    2147,    2132,    2170,    2252,    2192,    2176
    2169,    2285,    2317,    2314,    2277,    2351,    2407,    2483
    2591,    2777,    3142,    3672,    4049,    4509,    4818,    5115
    4892,    4713,    4502,    4498,    4492,    4501,    4435,    4202
    3984,    3572,    3448,    3304,    3152,    2985,    2827,    2706
    2597,    2655,    2576,    2628,    2815,    2686,    2802,    2733
    2752,    2769,    2803,    2740,    2681,    2594,    2691,    2585
    2646,    2737,    2589,    2674,    2579,    2725,    2738,    2670
    2723,    2855,    2812,    2879,    3032,    3164,    3185,    3388
    3587,    3737,    4019,    4185,    4692,    4959,    5327,    5608
    5897,    6195,    6408,    6582,    6662,    6661,    6561,    6569
    6593,    6572,    6506,    6432,    6104,    5874,    5695,    5675
    5428,    5472,    5280,    5276,    5226,    5198,    5268,    5091
    5243,    5315,    5187,    5151,    5121,    4904,    4754,    4712
    4846,    4850,    4715,    4555,    4564,    4586,    4502,    4448
    4371,    4504,    4243,    3867,    3770,    3575,    3426,    3465
    3298,    3270,    3346,    3256,    3058,    2946,    2910,    2792
    2656,    2649,    2570,    2624,    2635,    2526,    2534,    2397
    2481,    2494,    2441,    2409,    2391,    2558,    2445,    2371
    2442,    2529,    2457,    2528,    2517,    2516,    2404,    2389
    2468,    2440,    2496,    2358,    2336,    2265,    2411,    2293
    2334,    2428,    2395,    2347,    2276,    2317,    2322,    2310
    2322,    2309,    2319,    2303,    2201,    2398,    2337,    2320
    2455,    2646,    2586,    2746,    2825,    2790,    2871,    2803
    2826,    2801,    2908,    2874,    2847,    2823,    2789,    2763
    2787,    2587,    2542,    2412,    2413,    2433,    2523,    2343
    2311,    2384,    2188,    2180,    2233,    2136,    2165,    2128
    2135,    2002,    2045,    2153,    2101,    2014,    2052,    2035
    2012,    2003,    2085,    2133,    2149,    2055,    2045,    1988
    2154,    2218,    2193,    2287,    2217,    2282,    2484,    2500
    2369,    2419,    2326,    2332,    2176,    2215,    2168,    2249
    2286,    2107,    2152,    2189,    1975,    2098,    2012,    2027
    2009,    1963,    2082,    2161,    2156,    2222,    2207,    2382
    2432,    2430,    2595,    2613,    2653,    2610,    2455,    2471
    2492,    2433,    2429,    2307,    2412,    2375,    2268,    2121
    2093,    2106,    2067,    1956,    2061,    1991,    2028,    1921
    1923,    1839,    1994,    1972,    1993,    1998,    1964,    2046
    2003,    2020,    1977,    1968,    1987,    2110,    1915,    1951
    1957,    2006,    2031,    2123,    2059,    2005,    1979,    2053
    2107,    2069,    2072,    2079,    2135,    2131,    2130,    2104
    2147,    2075,    2007,    2051,    2047,    1892,    2022,    1874
    1993,    2053,    1944,    1987,    1856,    1969,    2047,    2069
    2002,    2150,    2192,    2281,    2300,    2265,    2309,    2346
    2368,    2391,    2519,    2528,    2566,    2532,    2663,    2700
    2860,    3002,    3061,    3081,    3228,    3181,    3333,    3473
    3595,    3541,    3491,    3771,    3728,    3709,    3662,    3625
    3598,    3693,    3618,    3474,    3310,    3113,    3024,    2832
    2915,    2874,    2731,    2776,    2649,    2450,    2372,    2329
    2231,    2330,    2159,    2182,    2189,    2221,    2241,    2220
    2140,    2102,    2082,    2118,    2114,    2034,    2058,    2145
    2019,    2038,    1993,    2020,    1963,    2039,    2018,    1976
    1962,    2036,    1953,    1949,    1880,    1948,    1956,    1980
    1997,    1955,    1986,    2047,    2167,    2201,    2252,    2353
    2550,    2617,    2534,    2555,    2488,    2594,    2559,    2600
    2677,    2602,    2643,    2582,    2590,    2398,    2565,    2499
    2461,    2350,    2397,    2334,    2245,    2240,    2132,    2300
    2198,    2098,    2205,    2127,    2057,    2091,    2179,    2046
    2227,    2122,    2075,    2215,    2221,    2207,    2171,    2182
    2219,    2137,    2186,    2100,    2135,    2100,    2230,    2073
    2100,    2134,    2145,    2108,    2022,    2144,    2034,    2087
    2114,    2032,    2044,    1994,    2074,    1933,    2023,    2024
    2079,    2046,    2088,    2215,    2020,    2153,    2226,    2319
    2294,    2440,    2439,    2470,    2546,    2623,    2567,    2590
    2575,    2546,    2638,    2730,    2814,    2817,    2859,    2723
    2676,    2496,    2550,    2433,    2552,    2450,    2483,    2539
    2525,    2536,    2510,    2512,    2497,    2617,    2442,    2358
    2232,    2384,    2430,    2389,    2369,    2520,    2553,    2494
    2548,    2592,    2602,    2636,    2671,    2614,    2671,    2818
    2845,    2764,    2742,    2686,    2766,    2806,    2811,    2842
    2741,    2803,    2874,    2910,    2683,    2508,    2462,    2312
    2315,    2378,    2294,    2316,    2350,    2397,    2335,    2288
    2290,    2201,    2274,    2242,    2286,    2557,    2592,    2709
    3166,    3070,    2871,    2714,    2697,    2555,    2525,    2490
    2473,    2524,    2566,    2599,    2535,    2336,    2271,    2245
    2283,    2128,    2247,    2155,    2074,    2142,    2194,    2235
    2176,    2265,    2248,    2324,    2275,    2544,    2585,    2655
    2888,    3243,    3347,    3886,    4251,    4664,    4796,    4637
    4280,    4063,    3958,    3743,    3752,    3752,    3888,    4094
    3892,    3896,    3798,    3544,    3461,    3393,    3339,    3163
    3216,    3121,    3097,    2997,    3047,    3011,    2963,    2969
    3033,    3051,    3112,    3077,    3142,    3192,    3084,    3181
    3114,    3150,    3205,    3205,    3301,    3283,    3257,    3254
    3208,    3194,    3247,    3272,    3415,    3447,    3406,    3515
    3414,    3379,    3213,    3054,    3008,    3013,    2995,    2908
    2801,    2946,    2844,    2719,    2741,    2540,    2508,    2622
    2566,    2489,    2473,    2449,    2495,    2507,    2441,    2460
    2451,    2445,    2363,    2351,    2365,    2369,    2280,    2349
    2311,    2299,    2116,    2189,    2175,    2124,    2170,    2082
    2145,    2131,    2106,    2136,    2014,    2079,    2076,    2110
    2082,    1980,    2069,    1991,    1971,    2028,    1930,    1995
    1991,    1968,    1992,    1987,    1945,    1967,    2016,    1852
    1908,    1973,    1950,    1878,    1937,    1844,    1962,    1863
    1917,    1928,    1951,    1900,    1944,    1962,    2047,    2013
    1986,    2017,    2046,    2221,    2184,    2264,    2434,    2540
    2747,    2822,    2886,    2815,    2834,    2760,    2729,    2616
    2529,    2588,    2508,    2473,    2491,    2698,    2621,    2562
    2500,    2308,    2302,    2201,    2147,    2139,    2153,    2161
    2179,    2206,    2087,    2024,    2090,    2153,    2034,    2018
    1993,    2074,    2000,    1959,    1995,    1971,    2039,    2007
    2034,    2041,    2065,    2168,    2147,    2286,    2314,    2312
    2275,    2203,    2140,    2095,    2268,    2126,    2193,    2213
    2300,    2352,    2482,    2439,    2431,    2288,    2278,    2245
    2220,    2112,    2089,    2188,    2173,    2146,    2138,    2229
    2179,    2131,    2100,    2014,    1954,    1915,    1921,    1925
    1895,    1869,    1831,    1904,    1973,    1956,    1861,    1761
    1789,    1782,    1745,    1705,    1859,    1792,    1832,    1742
    1706,    1749,    1677,    1612,    1619,    1640,    1655,    1748
    1586,    1579,    1624,    1571,    1621,    1624,    1625,    1586
    1632,    1727,    1654,    1689,    1749,    1710,    1745,    1752
    1755,    1787,    1825,    1739,    1808,    1822,    1813,    1819
    1805,    1817,    1737,    1749,    1766,    1686,    1702,    1664
    1688,    1649,    1587,    1565,    1652,    1632,    1668,    1586
    1557,    1542,    1559,    1532,    1497,    1457,    1514,    1497
    1532,    1499,    1456,    1548,    1519,    1559,    1481,    1489
    1419,    1467,    1423,    1400,    1408,    1397,    1344,    1366
    1397,    1452,    1453,    1396,    1353,    1421,    1345,    1335
    1361,    1308,    1377,    1403,    1331,    1363,    1414,    1311
    1396,    1349,    1337,    1497,    1515,    1623,    1630,    1569
    1639,    1630,    1720,    1831,    1771,    1749,    1767,    1715
    1649,    1736,    1582,    1665,    1633,    1665,    1574,    1633
    1520,    1559,    1522,    1443,    1473,    1314,    1381,    1321
    1334,    1302,    1239,    1232,    1238,    1208,    1214,    1191
    1230,    1218,    1173,    1162,    1209,    1180,    1158,    1144
    1207,    1191,    1201,    1126,    1097,    1128,    1259,    1240
    1177,    1218,    1196,    1143,    1148,    1099,    1133,    1194
    1152,    1080,    1198,    1223,    1140,    1202,    1161,    1087
    1161,    1156,    1208,    1213,    1198,    1215,    1254,    1307
    1324,    1417,    1394,    1424,    1490,    1472,    1508,    1362
    1443,    1438,    1380,    1396,    1355,    1294,    1365,    1445
    1476,    1463,    1589,    1560,    1748,    1792,    1849,    1905
    2010,    2187,    2369,    2363,    2423,    2327,    2201,    2199
    2111,    2142,    2086,    2084,    2200,    2098,    2118,    2042
    1935,    1809,    1770,    1669,    1606,    1654,    1670,    1557
    1491,    1492,    1493,    1464,    1399,    1403,    1339,    1332
    1284,    1292,    1313,    1296,    1312,    1284,    1279,    1283
    1342,    1266,    1373,    1367,    1343,    1312,    1346,    1280
    1274,    1250,    1375,    1316,    1379,    1350,    1374,    1406
    1311,    1352,    1393,    1458,    1489,    1433,    1517,    1569
    1560,    1548,    1470,    1533,    1366,    1463,    1372,    1361
    1393,    1322,    1405,    1389,    1344,    1307,    1293,    1303
    1232,    1227,    1208,    1208,    1187,    1209,    1174,    1256
    1167,    1181,    1194,    1150,    1148,    1204,    1191,    1125
    1241,    1129,    1132,    1175,    1171,    1154,    1132,    1153
    1179,    1127,    1134,    1164,    1126,    1157,    1171,    1162
    1154,    1197,    1152,    1276,    1229,    1201,    1279,    1301
    1365,    1429,    1385,    1403,    1418,    1473,    1459,    1451
    1502,    1478,    1495,    1499,    1571,    1650,    1614,    1557
    1552,    1575,    1520,    1445,    1455,    1458,    1493,    1385
    1442,    1392,    1412,    1352,    1286,    1364,    1340,    1322
    1281,    1304,    1262,    1275,    1300,    1309,    1202,    1311
    1227,    1178,    1286,    1261,    1274,    1250,    1292,    1316
    1228,    1257,    1174,    1155,    1220,    1262,    1179,    1210
    1222,    1207,    1198,    1267,    1228,    1247,    1242,    1228
    1249,    1194,    1179,    1196,    1237,    1312,    1250,    1236
    1243,    1251,    1295,    1345,    1331,    1341,    1454,    1408
    1395,    1492,    1534,    1547,    1497,    1527,    1587,    1564
    1601,    1477,    1584,    1482,    1493,    1476,    1464,    1418
    1325,    1419,    1388,    1338,    1365,    1332,    1337,    1289
    1297,    1280,    1335,    1297,    1197,    1172,    1209,    1171
    1164,    1104,    1137,    1136,    1117,    1056,    1130,    1140
    1143,    1162,    1116,    1133,    1144,    1132,    1109,    1116
    1149,    1126,    1111,    1128,    1166,    1125,    1098,    1085
    1128,    1116,    1104,    1113,    1061,    1150,    1115,    1104
    1077,    1089,    1109,    1133,    1126,    1090,    1159,    1128
    1076,    1067,    1091,    1166,    1095,    1140,    1204,    1209
    1128,    1105,    1084,    1184,    1100,    1172,    1096,    1133
    1108,    1104,    1145,    1159,    1078,    1128,    1095,    1124
    1088,    1125,    1114,    1117,    1168,    1144,    1147,    1152
    1190,    1148,    1198,    1148,    1144,    1226,    1202,    1230
    1298,    1296,    1224,    1122,    1212,    1179,    1180,    1253
    1159,    1209,    1195,    1182,    1153,    1182,    1147,    1216
    1093,    1201,    1166,    1184,    1189,    1169,    1171,    1226
    1270,    1350,    1362,    1367,    1405,    1353,    1416,    1398
    1396,    1370,    1257,    1379,    1314,    1332,    1417,    1308
    1376,    1352,    1349,    1372,    1300,    1414,    1339,    1437
    1332,    1376,    1335,    1365,    1412,    1351,    1326,    1375
    1316,    1274,    1289,    1256,    1271,    1256,    1316,    1324
    1325,    1337,    1380,    1366,    1487,    1392,    1403,    1390
    1310,    1273,    1249,    1213,    1249,    1294,    1211,    1243
    1149,    1206,    1220,    1183,    1135,    1159,    1165,    1197
    1126,    1022,    1091,    1120,    1061,    1114,    1071,    1043
    1092,    1123,    1139,    1083,    1106,    1095,    1062,    1064
    1074,    1077,    1084,    1101,    1090,    1101,    1089,    1063
    1089,    1032,     997,    1022,    1047,    1054,    1006,    1046
    1037,    1047,    1064,    1069,    1077,    1084,    1013,    1096
    1116,    1087,    1084,    1092,    1084,    1086,    1117,    1056
    1087,    1097,    1080,    1159,    1084,    1051,     969,    1034
    1062,    1053,    1079,    1060,    1077,    1040,    1057,    1035
    1053,    1029,    1075,    1025,    1078,    1064,    1061,    1020
    1076,    1079,    1117,    1022,    1175,    1137,    1102,    1080
    1136,    1103,    1083,    1128,    1042,    1092,    1153,    1131
    1139,    1218,    1260,    1241,    1170,    1158,    1165,    1144
    1108,    1173,    1161,    1188,    1132,    1126,    1084,    1153
    1095,    1136,    1052,    1050,    1101,    1114,    1024,    1057
    1103,    1050,    1173,    1016,    1009,    1071,    1060,    1003
    1037,    1042,    1049,    1088,    1081,    1068,    1029,    1084
    1125,    1066,    1070,    1130,    1141,    1201,    1158,    1203
    1176,    1203,    1222,    1184,    1174,    1107,    1159,    1175
    1187,    1049,    1098,    1171,    1094,    1162,    1111,    1163
    1141,    1118,    1112,    1066,    1064,    1054,    1090,    1084
    1056,    1029,    1058,    1010,    1110,    1085,    1032,    1090
    1037,    1046,    1045,    1062,    1038,    1091,    1021,    1041
    1075,    1081,    1050,    1024,    1089,    1093,    1120,    1134
    1067,    1023,    1041,    1090,    1132,    1187,    1258,    1240
    1319,    1294,    1344,    1263,    1350,    1497,    1427,    1501
    1483,    1444,    1341,    1366,    1311,    1291,    1305,    1221
    1284,    1244,    1303,    1255,    1270,    1281,    1282,    1306
    1378,    1310,    1201,    1164,    1234,    1178,    1162,    1106
    1153,    1120,    1098,    1134,    1162,    1096,    1107,    1083
    1076,    1183,    1139,    1094,    1083,    1119,    1009,    1025
    1105,    1068,    1073,    1090,    1066,    1122,    1132,    1087
    1075,    1093,    1066,    1084,    1079,    1052,    1043,    1106
    1133,    1151,    1132,    1188,    1163,    1162,    1204,    1188
    1199,    1195,    1168,    1228,    1180,    1190,    1134,    1169
    1173,    1166,    1187,    1224,    1168,    1205,    1241,    1223
    1159,    1200,    1114,    1178,    1186,    1194,    1135,    1177
    1179,    1218,    1202,    1170,    1172,    1160,    1174,    1180
    1249,    1220,    1241,    1238,    1293,    1258,    1214,    1207
    1199,    1215,    1176,    1227,    1199,    1200,    1197,    1178
    1162,    1207,    1212,    1186,    1248,    1180,    1207,    1235
    1167,    1196,    1191,    1202,    1192,    1269,    1199,    1223
    1209,    1329,    1317,    1389,    1330,    1380,    1459,    1437
    1362,    1436,    1349,    1353,    1392,    1314,    1306,    1370
    1276,    1327,    1316,    1290,    1355,    1320,    1297,    1286
    1343,    1279,    1288,    1232,    1258,    1257,    1244,    1271
    1266,    1271,    1317,    1316,    1383,    1307,    1399,    1375
    1317,    1363,    1317,    1237,    1244,    1241,    1216,    1234
    1340,    1301,    1323,    1290,    1348,    1413,    1314,    1361
    1304,    1368,    1288,    1368,    1359,    1368,    1457,    1527
    1532,    1465,    1470,    1444,    1421,    1454,    1420,    1393
    1351,    1343,    1386,    1365,    1354,    1411,    1371,    1329
    1370,    1300,    1244,    1249,    1261,    1315,    1292,    1320
    1268,    1284,    1183,    1255,    1222,    1227,    1167,    1167
    1158,    1199,    1209,    1161,    1091,    1192,    1154,    1201
    1118,    1170,    1218,    1268,    1224,    1261,    1217,    1285
    1365,    1436,    1409,    1412,    1310,    1310,    1329,    1279
    1335,    1298,    1268,    1253,    1248,    1255,    1240,    1366
    1238,    1254,    1242,    1326,    1321,    1292,    1277,    1306
    1232,    1249,    1283,    1245,    1281,    1212,    1256,    1231
    1223,    1289,    1225,    1260,    1265,    1224,    1275,    1262
    1180,    1256,    1170,    1208,    1185,    1208,    1190,    1172
    1194,    1174,    1291,    1178,    1134,    1245,    1216,    1212
    1132,    1186,    1131,    1189,    1194,    1118,    1100,    1097
    1114,    1155,    1222,    1184,    1143,    1141,    1210,    1177
    1271,    1167,    1115,    1209,    1200,    1182,    1106,    1179
    1146,    1162,    1168,    1089,    1189,    1164,    1032,    1121
    1111,    1191,    1136,    1152,    1159,    1198,    1084,    1198
    1171,    1144,    1072,    1140,    1141,    1113,    1141,    1097
    1061,    1090,    1094,    1069,    1147,    1135,    1090,    1077
    1088,    1077,    1065,    1094,    1110,    1188,    1058,    1013
    1140,    1110,    1018,    1151,    1056,    1061,    1092,    1062
    1071,    1089,    1071,    1048,    1083,    1050,    1069,    1062
    1079,    1111,    1132,    1041,    1175,    1119,    1148,    1151
    1109,    1201,    1223,    1180,    1238,    1201,    1163,    1136
    1128,    1129,    1101,    1042,    1122,    1148,    1115,    1115
    1131,    1107,    1129,    1126,    1090,    1127,    1085,    1130
    1065,    1077,    1061,    1137,    1085,    1074,    1049,    1052
    1040,    1093,    1020,    1119,    1029,    1078,    1145,    1082
    1036,    1148,    1085,    1040,    1130,    1163,    1135,    1117
    1133,    1129,    1172,    1200,    1190,    1199,    1138,    1235
    1278,    1260,    1290,    1199,    1267,    1232,    1284,    1307
    1280,    1221,    1174,    1192,    1266,    1263,    1316,    1311
    1289,    1306,    1348,    1338,    1385,    1414,    1438,    1446
    1508,    1529,    1468,    1480,    1558,    1620,    1619,    1668
    1663,    1573,    1564,    1588,    1528,    1453,    1508,    1507
    1461,    1441,    1546,    1456,    1481,    1523,    1483,    1445
    1459,    1536,    1414,    1449,    1495,    1419,    1425,    1420
    1370,    1392,    1361,    1366,    1377,    1337,    1347,    1353
    1234,    1320,    1266,    1331,    1252,    1366,    1238,    1237
    1281,    1230,    1231,    1213,    1178,    1218,    1327,    1246
    1191,    1217,    1200,    1202,    1186,    1212,    1212,    1165
    1149,    1159,    1182,    1143,    1284,    1226,    1164,    1149
    1118,    1127,    1132,    1193,    1143,    1154,    1166,    1133
    1204,    1130,    1168,    1157,    1174,    1106,    1221,    1239
    1135,    1197,    1184,    1166,    1189,    1179,    1178,    1180
    1121,    1076,    1158,    1172,    1172,    1186,    1203,    1143
    1205,    1153,    1181,    1161,    1179,    1114,    1151,    1135
    1126,    1146,    1170,    1108,    1120,    1186,    1066,    1103
    1164,    1095,    1201,    1156,    1110,    1089,    1131,    1093
    1190,    1128,    1144,    1172,    1157,    1083,    1146,    1178
    1226,    1224,    1217,    1286,    1287,    1315,    1242,    1362
    1282,    1221,    1273,    1202,    1211,    1160,    1244,    1212
    1212,    1197,    1167,    1209,    1177,    1183,    1188,    1181
    1164,    1190,    1110,    1179,    1084,    1120,    1124,    1120
    1063,    1085,    1090,    1054,    1078,    1040,    1045,    1023
    1010,    1056,     985,     987,     961,     966,     948,     978
     998,     965,     981,     963,     957,     935,    1031,     950
     962,     960,     988,    1008,     902,     933,     992,     971
     959,    1008,    1023,    1058,    1032,    1088,    1078,    1068
    1139,    1133,    1173,    1135,    1226,    1105,    1146,    1093
    1076,    1110,    1128,    1168,    1105,    1053,    1121,    1114
    1116,    1133,    1028,    1054,    1091,    1064,    1083,    1085
    1042,    1058,    1095,    1090,    1015,    1040,     975,    1015
     981,    1001,     983,     994,    1003,     987,     989,     950
     937,     986,    1037,     927,     995,     960,     979,     960
     905,     963,     919,     968,     934,     949,     916,     951
     971,     886,     886,     977,     978,     900,     909,     976
     922,     843,     919,     887,     898,     925,     951,     924
     956,     919,     845,     903,     907,     892,     889,     894
     878,     903,     925,     921,     861,     856,     888,     874
     914,     865,     896,     857,     890,     871,     884,     949
     870,     917,     876,     879,     918,     933,     913,     864
     814,     884,     846,     789,     836,     831,     860,     857
     857,     867,     897,     861,     793,     885,     817,     896
     875,     793,     873,     787,     860,     847,     842,     862
     836,     837,     803,     835,     837,     799,     820,     846
     796,     798,     829,     873,     856,     832,     835,     860
     882,     819,     796,     838,     846,     769,     780,     788
     846,     890,     824,     830,     846,     836,     832,     839
     832,     822,     822,     837,     773,     806,     817,     844
     833,     853,     823,     771,     825,     839,     863,     827
     868,     842,     814,     873,     815,     831,     859,     848
     834,     852,     895,     859,     782,     873,     854,     817
     814,     805,     789,     830,     841,     816,     856,     810
     807,     850,     845,     844,     782,     773,     845,     801
     784,     805,     817,     750,     769,     767,     763,     809
     782,     727,     793,     771,     770,     830,     773,     751
     737,     812,     761,     742,     731,     762,     802,     780
     792,     828,     783,     811,     795,     832,     792,     778
     876,     810,     833,     837,     848,     821,     926,     799
     828,     889,     907,     851,     882,     883,     886,     887
     829,     841,     797,     833,     912,     877,     818,     834
     861,     838,     815,     800,     828,     820,     847,     813
     795,     812,     815,     871,     818,     837,     819,     825
     807,     806,     868,     811,     825,     785,     823,     776
     739,     779,     812,     752,     784,     805,     761,     809
     758,     817,     781,     792,     767,     822,     780,     817
     805,     811,     856,     799,     797,     774,     816,     796
     802,     791,     812,     823,     818,     817,     827,     884
     812,     826,     819,     811,     789,     773,     807,     815
     796,     809,     859,     821,     798,     826,     858,     807
     840,     846,     867,     866,     823,     830,     890,     815
     793,     869,     803,     858,     844,     867,     829,     864
     877,     867,     852,     829,     869,     785,     772,     813
     869,     844,     864,     878,     919,     893,     852,     899
     846,     882,     863,     893,     862,     962,     887,     914
     892,     946,     958,     928,     962,     960,     980,    1023
     895,     945,     973,     930,     943,    1020,     990,     992
    1011,    1020,     974,     960,     971,     987,    1024,     967
     971,     940,    1064,     985,     927,     948,     943,     891
     861,     912,     958,     927,     923,     913,     889,     928
     914,     865,     852,     918,     902,     892,     853,     881
     890,     856,     857,     843,     880,     870,     807,     846
     840,     853,     819,     876,     866,     934,     872,     888
     843,     875,     849,     847,     835,     830,     906,     854
     795,     814,     888,     876,     880,     856,     914,     887
     898,     918,     908,     925,     939,     956,     935,     978
     934,     981,     974,     998,     956,     947,     984,     926
     907,     940,     928,     874,     879,     883,     921,     903
     908,     899,     931,     877,     887,     876,     864,     857
     911,     903,     901,     918,     878,     829,     888,     903
     870,     866,     846,     856,     896,     797,     786,     844
     850,     887,     865,     843,     891,     839,     888,     865
     805,     877,     835,     864,     835,     802,     881,     849
     842,     836,     868,     796,     901,     901,     885,     821
     851,     858,     804,     850,     848,     802,     820,     922
     832,     852,     884,     907,     858,     906,     860,     895
     895,     889,     870,     883,     885,     877,     849,     913
     874,     911,     915,     881,     892,     894,     890,     884
     894,     919,     887,     887,     877,     871,     916,     845
     899,     858,     856,     935,     893,     894,     814,     881
     935,     899,     947,     898,     910,     920,     873,     882
     890,     900,     881,     949,     866,     902,     904,     900
     950,     921,     895,     930,     852,     866,     933,     857
     903,     906,     873,     918,     823,     903,     867,     878
     866,     877,     831,     914,     888,     884,     951,     872
     880,     920,     889,     877,     950,     899,     931,     869
     902,     819,     852,     846,     851,     833,     854,     837
     827,     840,     845,     850,     877,     846,     843,     921
     901,     818,     873,     879,     890,     906,     857,     788
     842,     858,     856,     863,     896,     814,     810,     852
     830,     819,     840,     865,     849,     867,     901,     817
     804,     841,     845,     862,     880,     886,     819,     879
     899,     821,     865,     832,     810,     837,     832,     806
     825,     877,     846,     840,     875,     837,     868,     853
     926,     901,     949,     881,     889,     922,     965,     947
     918,     944,    1000,     954,     938,     969,     969,    1008
     933,     999,    1055,    1039,    1045,    1008,    1106,    1027
    1141,    1100,    1118,    1111,    1108,    1150,    1166,    1173
    1158,    1147,    1137,    1117,    1101,    1143,    1102,    1155
    1092,    1040,    1114,    1000,    1126,    1090,    1030,    1053
    1025,    1020,    1033,    1060,    1013,    1082,    1052,    1061
    1001,    1032,    1042,    1021,    1002,     930,    1021,     972
    1039/
