SampleIdent,SS001474281 BULK,/
Title1,Ocean Drilling Program Leg 201,/
Title2,PC-APD Software Version 3.6f,/
DiffrType,PW1710,/
DiffrNumber,1,/
Anode,Cu,/
LabdaAlpha1, 1.54056,/
LabdaAlpha2, 1.54439,/
RatioAlpha21, 0.50000,/
DivergenceSlit,Automatic, 12,/
ReceivingSlit,0.2,/
MonochromatorUsed,NO  ,/
GeneratorVoltage,  40,/
TubeCurrent,  35,/
FileDateTime,15-Mar-2002  9:34,/
DataAngleRange,   2.0000,  60.0000,/
ScanStepSize,   0.020,/
ScanType,STEP,/
ScanStepTime,    1.00,/
RawScan
     253,     243,     253,     240,     253,     246,     240,     240
     250,     237,     240,     256,     225,     216,     228,     202
     234,     225,     231,     246,     207,     219,     219,     196
     213,     222,     219,     228,     216,     193,     188,     190
     174,     202,     172,     164,     193,     182,     216,     172
     156,     151,     182,     149,     174,     180,     174,     164
     172,     161,     169,     132,     174,     172,     177,     161
     154,     169,     154,     156,     144,     166,     151,     161
     159,     130,     151,     144,     159,     146,     159,     164
     159,     137,     156,     159,     154,     151,     142,     159
     166,     164,     121,     132,     132,     137,     135,     142
     135,     139,     142,     149,     146,     137,     146,     166
     142,     142,     142,     144,     142,     159,     137,     142
     139,     121,     149,     139,     121,     146,     154,     135
     144,     137,     159,     137,     135,     132,     142,     121
     154,     119,     128,     128,     132,     125,     166,     146
     125,     151,     123,     125,     132,     135,     110,     102
     128,     144,     121,     102,     128,     130,     125,     125
     123,     114,     119,     125,     128,     137,     128,     102
     121,     130,     114,     114,     110,     128,     121,     102
     128,     130,     110,     112,     125,     108,      98,     132
     108,     106,     121,     132,     108,     102,     117,     123
     121,     121,     110,     125,     144,     123,     104,     128
     117,     112,     102,     108,     102,     125,     114,      94
     106,     121,     104,     108,     100,     100,     128,     108
     106,     125,     130,     119,     108,     123,     114,     119
     112,     121,     114,     123,      98,     121,     123,     125
     121,     100,     100,     119,     130,      88,     130,     106
      92,     121,     114,     106,     100,     123,     108,      94
     121,     108,      96,     128,     114,      88,     117,     123
     102,     112,     100,      96,     112,     110,     100,     106
      94,     102,      83,      92,     112,     108,      90,      90
     108,      92,      92,      94,      83,      98,     108,      86
     112,      98,      92,      94,      90,      79,      98,      98
      76,      77,      86,      83,      96,      90,     108,     100
      92,      96,      96,      83,      94,      85,     106,      76
      85,      88,      92,      96,      90,      67,      98,      90
      92,      76,      94,      96,      85,      86,     100,      81
      71,      86,      67,      86,      76,      92,      83,      94
      90,      90,      67,      88,      77,      94,      90,      83
     104,      92,      90,      86,      92,      86,      85,     100
      98,      86,      77,      83,     110,      98,     102,      88
      86,     108,      96,      90,     100,     108,     100,     102
      94,      71,      85,      79,      92,      83,      76,      85
      98,      67,      83,     112,      85,      83,      76,      69
      83,      96,      83,      79,      90,      77,      69,      85
      81,      79,      94,      77,      76,      79,      62,      79
      85,      98,      69,      79,      94,      83,      79,      83
      76,      71,      72,      86,      62,      90,      74,      81
      85,      90,      85,      71,      92,      85,      72,      77
      85,      67,      71,      72,      96,      77,      77,      72
      72,      83,      66,      86,      59,      67,      74,      83
      90,      85,      83,      77,     110,     130,     123,     119
     104,      77,      96,      77,      90,      94,      72,      76
      71,      85,      86,      72,      77,      76,      58,      56
      85,      86,      72,      79,      85,      77,      74,      71
      67,      86,      81,      67,      58,      74,      72,      81
      85,      88,      62,      66,      59,      83,      83,      72
      61,      72,      66,      77,      67,      72,      58,      71
      85,      66,      72,      69,      67,      66,      71,      71
      66,      74,      79,      62,      83,      77,      67,      72
      86,      71,      76,      76,      85,      85,      77,      64
      66,      62,      74,      76,      81,      69,      76,      81
      85,      72,      83,      66,      66,      83,      69,      61
      72,      76,      86,      72,      77,      77,      77,      96
      86,      77,      92,      86,      94,      83,      83,      72
      62,      83,      71,      71,      62,      79,      71,      79
      72,      79,      71,      72,      79,      76,      72,      85
      71,      66,      71,      76,      61,      67,      72,      61
      77,      67,      67,      83,      83,      81,      67,      66
      59,      64,      67,      71,      79,      79,      67,      71
      76,      69,      83,      67,      79,      62,      74,      81
      83,      88,      94,      86,      76,      90,      85,      98
      92,      86,      79,      94,      90,      88,      94,     110
      88,     102,      85,      88,      96,      96,      96,      72
      67,      72,      67,      72,      90,      72,      72,      76
      72,      53,      72,      62,      66,      76,      67,      69
      76,      85,      62,      72,      67,      66,      69,      50
      85,      69,      71,      74,      72,      50,      52,      59
      64,      71,      66,      53,      61,      48,      67,      62
      76,      79,      76,      72,      69,      67,      72,      72
      61,      69,      94,      72,      77,      81,      72,      76
      71,      53,      66,      77,      66,      66,      59,      69
      79,      67,      62,      61,      74,      66,      71,      74
      85,      59,      64,      53,      62,      69,      66,      59
      74,      76,      71,      67,      62,      59,      50,      69
      59,      59,      77,      64,      72,      72,      69,      52
      55,      71,      61,      62,      66,      61,      56,      72
      59,      53,      66,      56,      50,      66,      72,      62
      66,      48,      67,      76,      67,      55,      62,      71
      59,      61,      55,      52,      56,      69,      64,      56
      61,      83,      64,      71,      62,      61,      72,      56
      66,      53,      77,      64,      69,      59,      66,      61
      53,      56,      59,      61,      59,      81,      72,      59
      59,      61,      67,      56,      71,      66,      86,      79
      71,      71,      64,      59,      59,      64,      79,      66
      72,      90,      62,      66,      66,      56,      72,      56
      71,      50,      72,      66,      77,      69,      61,      44
      74,      71,      72,      67,      58,      74,      77,      67
      58,      77,      56,      76,      72,      69,      66,      59
      61,      59,      50,      67,      62,      59,      56,      56
      69,      59,      53,      74,      72,      69,      67,      61
      53,      64,      79,      72,      56,      71,      67,      79
      59,      72,      76,      69,      72,      66,      76,      72
      74,      53,      64,      59,      71,      71,      86,      77
      71,      81,      79,      67,      66,      77,      74,      67
      72,      67,      92,      66,      61,      71,      67,      72
      67,      77,      62,      76,      86,      83,      62,      69
      86,      72,      74,      79,      66,      72,      72,      50
      71,      77,      85,      86,      66,      81,      88,      67
      85,      69,      77,      72,      81,      79,      83,      86
      83,      92,     100,      86,      85,      86,      98,      77
      77,      92,      61,      76,      71,      79,      72,      81
      94,      67,      90,      79,      88,      59,      72,      79
      81,      66,      67,      94,      66,      83,      94,      79
      71,      77,      85,      83,     104,      72,      77,      83
      98,      98,      98,     106,     132,     135,     144,     156
     204,     216,     276,     262,     339,     365,     357,     272
     240,     188,     137,     112,     119,      96,      90,      98
     112,      90,     100,      83,      85,      85,      90,      81
      83,      69,      67,      85,      83,      77,      69,      58
      83,      86,      66,      72,      76,      94,      83,      77
      77,      85,      96,      90,      62,      85,      81,      72
      77,      77,      81,      77,      83,      96,      85,     110
      94,     108,     123,     146,     164,     207,     182,     182
     159,     159,     121,      92,     100,      98,      71,      81
      76,      74,      94,      76,      72,      76,      71,      79
      92,      74,      74,      92,      71,      98,      88,      67
      83,      85,      79,      74,      88,      72,      76,      77
      96,      88,      86,      77,      67,      81,      81,      85
      77,     102,     100,     110,     117,     132,     135,     130
      85,      88,      83,      85,      83,      94,      88,      67
      79,      86,      79,      86,      86,      92,      71,      74
      77,      85,      72,     104,      86,      98,     102,      83
     117,     123,     119,     119,     119,     121,     128,     132
     130,     130,     114,     121,     121,     106,     106,     117
     102,      98,      72,      90,      77,      76,      83,      94
      83,      67,      86,      86,      64,     106,      83,      72
     104,      98,      94,      92,      83,     108,     132,      96
     123,     117,     125,     149,     142,     130,     123,     106
      85,      90,      92,      90,      90,      76,      96,      90
      79,      83,      83,      76,      77,      85,      81,      72
      67,      77,      85,      67,      86,      86,      74,      88
      72,      90,      76,      81,      90,      88,      96,      92
     104,      92,      85,      90,      96,      77,      85,      76
      83,      90,      81,      66,      88,      86,      77,      92
      85,      98,     112,      88,      94,     119,      83,     112
      98,      96,      94,     100,     114,      92,     108,     110
      96,     104,      98,     119,     121,      96,     121,     119
     132,     119,      90,      88,      94,     106,      83,      79
     106,      85,      92,     110,      74,      94,     104,     132
     110,     114,     121,     123,     135,     161,     142,     149
     180,     154,     222,     216,     240,     324,     339,     404
     437,     655,     824,    1149,    1568,    1823,    1866,    1971
    1772,    1354,    1063,     784,     529,     342,     243,     282
     296,     346,     365,     350,     272,     272,     216,     202
     169,     154,     149,     139,     142,     151,     159,     159
     169,     137,     110,     137,     142,     139,     180,     196
     185,     142,     219,     182,     151,     172,     193,     174
     210,     213,     219,     193,     193,     196,     193,     164
     190,     204,     199,     216,     282,     328,     335,     433
     480,     449,     408,     424,     511,     524,     640,     729
     686,     778,     853,    1089,    1149,    1076,     724,     605
     552,     420,     250,     154,     151,     159,     159,     156
     156,     177,     156,     144,     123,     123,     137,     154
     190,     190,     177,     146,     154,     119,     130,      98
      92,      83,      86,      77,      59,      62,      62,      67
      62,      85,      59,      53,      46,      66,      64,      72
      59,      56,      52,      71,      79,      67,      74,      79
      71,      85,      79,      94,      71,      83,      92,      69
      77,      77,      69,     100,      94,      67,      62,      72
      79,      76,      69,      58,      71,      85,      69,      59
      94,      96,      85,      76,      76,      77,     100,     104
      79,     102,      98,     110,      94,     114,     100,      86
      98,     110,      85,     110,     102,      72,      88,      77
      79,      81,      86,      76,      86,      72,      90,      96
      92,     144,     139,     199,     199,     188,     172,     204
     188,     182,     154,     135,     151,     137,     125,     112
      92,      94,      94,      88,      90,      96,      72,      76
      67,      66,      77,      90,      77,      85,      86,      74
      71,      76,      61,      74,      83,      79,      71,      62
      59,      77,      71,      76,      61,      74,      53,      66
      67,      67,      83,      71,      85,      74,      76,      86
      88,      71,      81,      83,      85,      88,      92,     114
     108,     112,     130,     159,     154,     166,     182,     207
     256,     282,     289,     328,     306,     282,     269,     240
     228,     222,     128,     135,     125,     137,     151,     137
     151,     161,     156,     182,     185,     159,     182,     169
     146,     132,     114,     119,     112,     100,     123,     112
     114,     130,     104,     110,     106,      90,      96,      79
      90,      90,      72,      76,      64,      62,      66,      76
      62,      85,      61,      64,      64,      67,      62,      59
      72,      56,      67,      71,      67,      71,      85,      71
      72,      85,      94,     110,     110,     142,     137,     121
     119,     112,      98,     114,     130,      94,     102,     108
     123,     114,     100,     100,     112,     102,      81,      79
      85,      74,      62,      72,      88,      79,      72,      69
      79,      72,      53,      49,      66,      62,      71,      72
      67,      53,      55,      88,      71,      72,      40,      85
      61,      76,      77,      76,      77,      59,      66,      72
      77,      66,      83,      79,      69,      76,      94,      88
      86,      77,      94,      92,      81,      83,      85,      77
      85,      83,      77,      83,      79,      67,      62,      83
      76,      66,      67,      81,      77,      76,      76,      92
      79,      77,      79,      88,      85,      77,      74,      76
      85,      85,      86,      76,     104,      85,      83,      76
     110,     104,      79,     104,      94,      92,      83,      76
      85,     102,      79,      83,      96,      96,      90,      90
      66,      85,      85,      77,      86,      76,      79,      72
      67,      66,      85,      86,      76,      88,     104,     104
      76,      56,      59,      67,      74,      71,      81,      58
      77,      74,      62,      66,      79,      66,      72,      53
      69,      66,      59,      67,      56,      71,      67,      56
      50,      67,      61,      58,      69,      61,      67,      76
      52,      74,      67,      76,      90,      86,     114,     100
     137,     149,     166,     207,     210,     240,     286,     219
     202,     190,     199,     166,     137,     130,      92,      92
      88,      77,      83,      76,      76,      76,      67,      67
      77,      66,      69,      85,     100,      76,     106,     114
     119,     104,     106,     100,      94,      90,      81,      96
      76,      72,      77,      71,      71,      62,      61,      53
      79,      66,      61,      69,      71,      72,      86,      81
      64,      66,      79,      86,      58,      83,      71,      86
      71,      67,      67,      64,      72,      62,      71,      56
      56,      66,      59,      76,      56,      64,      46,      58
      38,      50,      53,      61,      50,      44,      53,      55
      56,      61,      64,      62,      66,      79,      90,      86
      66,      90,      85,      79,      86,      74,      83,      66
      69,      62,      77,      59,      67,      59,      50,      50
      66,      53,      59,      48,      52,      66,      53,      62
      53,      56,      66,      62,      45,      50,      62,      53
      62,      62,      56,      61,      56,      56,      62,      59
      59,      67,      69,      85,      74,      69,      88,      86
      98,     114,     132,     149,     159,     199,     199,     222
     202,     196,     188,     139,     144,     146,     137,     102
     110,      96,      72,      79,      71,      46,      74,      61
      56,      79,      71,      56,      66,      50,      55,      52
      62,      52,      72,      59,      76,      69,      72,      86
      90,      94,     121,     132,     117,     149,     164,     156
     156,     137,     125,     117,     119,     119,      88,      74
      76,      69,      61,      52,      79,      76,      62,      53
      59,      69,      67,      69,      72,      94,      83,     104
      88,      86,     100,      83,      90,      69,      77,      56
      62,      59,      62,      53,      59,      52,      48,      61
      55,      56,      53,      55,      52,      67,      53,      48
      53,      50,      48,      62,      62,      59,      66,      59
      62,      49,      67,      61,      71,      50,      53,      56
      58,      76,      66,      88,      74,      86,      71,      76
      83,      69,      83,      92,      77,      76,      71,      59
      59,      53,      62,      59,      69,      62,      52,      67
      61,      56,      59,      62,      77,      71,      79,      79
      77,      90,      90,     108,     110,      88,     112,     144
     144,     142,     188,     240,     243,     272,     269,     234
     207,     180,     193,     177,     121,     112,     100,      86
      83,      79,      83,      72,      72,      72,      88,      77
      67,      81,      66,      58,      67,      56,      67,      64
      44,      66,      59,      74,      69,      53,      66,      44
      62,      56,      66,      49,      64,      56,      66,      59
      66,      56,      59,      66,      53,      67,      52,      50
      62,      56,      71,      69,      52,      50,      67,      58
      44,      53,      66,      53,      58,      56,      71,      46
      55,      53,      55,      71,      56,      53,      85,      48
      67,      56,      72,      77,      72,      79,      86,      79
      71,      77,      76,      76,      86,      64,      66,      64
      74,      66,      62,      59,      53,      58,      64,      46
      53,      50,      52,      52,      66,      62,      72,      69
      79,      92,      77,      85,      81,     108,      85,      88
      96,      83,      77,      77,      83,      69,      77,      72
      72,      62,      72,      72,      59,      77,      81,      69
      76,      62,      79,      79,      71,      88,      85,      88
      90,      94,     123,     108,     146,     164,     188,     188
     204,     202,     234,     219,     231,     196,     196,     177
     180,     172,     142,     121,     110,     110,     106,     125
     130,     149,     154,     164,     174,     188,     121,     121
     121,     135,      94,     114,      86,      69,      71,      62
      58,      56,      67,      62,      56,      45,      55,      66
      53,      44,      58,      56,      52,      56,      69,      53
      58,      48,      56,      53,      58,      50,      41,      49
      44,      48,      50,      41,      52,      53,      66,      58
      53,      62,      50,      52,      58,      56,      67,      71
      76,      85,      77,      74,      90,      77,      94,      79
      92,      98,      83,      90,      79,      90,      88,      69
      92,      69,      79,      67,      67,      77,      71,      64
      77,      72,      83,      88,      98,      96,      79,      81
      77,      79,      77,      72,      71,      66,      50,      48
      49,      55,      56,      44,      62,      41,      66,      69
      56,      59,      59,      48,      53,      71,      50,      49
      66,      64,      52,      55,      56,      72,      59,      71
      56,      44,      71,      83,      66,      59,      69,      53
      76,      85,      98,      71,      77,      77,      83,      72
      90,      85,      85,      66,      74,      50,      76,      81
      72,      59,      55,      58,      64,      53,      62,      41
      50,      67,      56,      50,      45,      58,      62,      50
      50,      48,      44,      76,      62,      50,      62,      66
      56,      83,      85,      83,      85,      98,      98,      85
      86,      86,      77,      77,      79,      72,      69,      71
      59,      66,      77,      67,      90,      83,      72,      86
      85,     104,     130,     121,     130,     132,     108,     102
     104,     104,     110,     121,     114,     112,      96,      96
      98,     119,     130,     114,     154,     154,     177,     250
     262,     303,     365,     416,     408,     428,     384,     342
     292,     289,     266,     240,     250,     188,     174,     117
      86,      92,      71,      86,      77,      72,      56,      72
      77,      67,      72,      90,      67,      96,      88,      88
      86,     102,      83,     102,      94,      96,      74,      88
      76,      62,      90,      88,      74,      92,      71,      67
      72,      77,      77,      64,      76,      79,      76,      72
      64,      77,      79,      79,      77,      83,     100,      79
      88,     123,     102,     121,     125,     137,     132,     106
      76,      76,      83,      86,      81,      76,      62,      72
      59,      56,      55,      52,      69,      69,      59,      69
      66,      69,      86,      61,      81,      53,      71,      64
      66,      53,      67,      55,      62,      69,      50,      67
      50,      53,      58,      53,      66,      55,      83,      67
      64,      69,      72,      74,      76,      76,      83,      79
      77,      81,      96,      69,      67,      83,      74,      66
      59,      62,      79,      76,      56,      56,      58,      72
      67,      50,      56,      49,      55,      56,      64,      59
      52,      58,      72,      61,      56,      74,      72,      90
      86,      81,      83,      94,      86,     102,      81,      88
      98,      92,      59,      77,      55,      72,      79,      64
      64,      62,      62,      71,      56,      59,      50,      62
      37,      49,      55,      48,      41,      44,      45,      53
      49,      50,      53,      52,      48,      52,      53,      53
      58,      59,      53,      59,      56,      48,      44,      55
      48,      38,      44,      56,      56,      48,      48,      36
      53,      56,      50,      56,      48,      59,      48,      52
      55,      50,      56,      59,      56,      59,      53,      45
      44,      32,      42,      52,      59,      52,      56,      52
      53,      53,      52,      67,      69,      74,      92,      94
     106,     100,     110,     112,     106,      88,      85,      67
      76,     108,      90,      88,      52,      66,      45,      53
      59,      45,      53,      42,      64,      61,      83,      90
      96,      81,      62,      66,      62,      66,      77,      66
      66,      77,      79,      56,      49,      55,      56,      40
      45,      46,      52,      50,      59,      50,      46,      46
      41,      41,      53,      52,      40,      62,      31,      44
      59,      50,      50,      44,      56,      56,      67,      64
      59,      58,      67,      64,      94,     119,     102,     102
     117,     106,     110,      85,      86,     104,      90,      72
     100,      88,     102,      98,      96,      94,      86,      72
      81,      61,      76,      59,      64,      56,      76,      56
      53,      42,      48,      44,      59,      46,      46,      42
      36,      30,      46,      48,      44,      32,      32,      29
      34,      37,      42,      34,      45,      41,      53,      53
      59,      55,      59,      42,      45,      50,      52,      44
      48,      56,      32,      53,      45,      46,      38,      44
      35,      41,      53,      44,      44,      41,      49,      45
      46,      56,      58,      50,      53,      56,      56,      53
      55,      53,      67,      85,      66,      48,      67,      40
      52,      50,      56,      50,      44,      46,      52,      44
      44,      44,      48,      32,      56,      48,      41,      46
      40,      53,      42,      46,      44,      41,      49,      48
      46,      53,      40,      38,      50,      41,      48,      59
      69,      45,      49,      53,      50,      45,      46,      56
      55,      59,      53,      49,      50,      56,      55,      42
      48,      50,      55,      34,      62,      44,      42,      38
      38,      50,      44,      50,      49,      41,      37,      46
      44,      40,      40,      46,      40,      59,      53,      53
      46,      42,      44,      53,      53,      41,      41,      62
      49,      49,      42,      59,      66,      83,      77,      83
      79,      79,      86,     106,     139,     172,     196,     246
     253,     320,     289,     185,     174,/
