SampleIdent,SS001548953 BULK,/
Title1,,/
Title2,PC-APD Software Version 3.6f,/
DiffrType,PW1710,/
DiffrNumber,1,/
Anode,Cu,/
LabdaAlpha1, 1.54056,/
LabdaAlpha2, 1.54439,/
RatioAlpha21, 0.50000,/
DivergenceSlit,Automatic, 12,/
ReceivingSlit,0.2,/
MonochromatorUsed,YES ,/
GeneratorVoltage,  40,/
TubeCurrent,  35,/
FileDateTime, 6-Jun-2003 14:29,/
DataAngleRange,   2.0000,  70.0000,/
ScanStepSize,   0.020,/
ScanType,STEP,/
ScanStepTime,    1.00,/
RawScan
     119,     106,      96,     104,      96,      88,      92,      81
     108,     100,      94,      79,     100,      85,      85,      92
      92,      74,      88,      81,      67,      85,      79,      58
      74,      56,      45,      67,      66,      72,      62,      66
      67,      62,      59,      59,      59,      66,      56,      55
      59,      53,      52,      62,      49,      50,      32,      56
      55,      55,      45,      64,      53,      48,      44,      42
      42,      35,      45,      40,      56,      42,      46,      45
      32,      44,      42,      38,      44,      52,      37,      36
      41,      38,      40,      46,      37,      34,      36,      37
      36,      32,      50,      30,      29,      29,      45,      49
      46,      27,      48,      38,      38,      37,      26,      36
      32,      34,      44,      34,      40,      25,      30,      35
      26,      30,      29,      25,      32,      26,      37,      25
      30,      32,      26,      32,      32,      35,      28,      22
      32,      42,      25,      29,      29,      27,      32,      32
      27,      34,      32,      22,      31,      20,      20,      18
      22,      31,      44,      28,      24,      31,      27,      29
      27,      28,      32,      25,      29,      38,      40,      32
      29,      26,      30,      38,      23,      26,      19,      23
      26,      29,      24,      26,      31,      21,      30,      23
      25,      29,      19,      26,      22,      31,      30,      31
      27,      26,      26,      37,      19,      31,      17,      23
      27,      37,      28,      26,      34,      21,      27,      19
      30,      32,      30,      36,      32,      35,      21,      27
      32,      17,      26,      40,      23,      28,      21,      32
      31,      25,      26,      30,      23,      30,      35,      24
      24,      30,      31,      23,      25,      28,      23,      27
      20,      25,      22,      36,      24,      29,      28,      29
      30,      34,      22,      30,      27,      24,      30,      25
      30,      32,      22,      26,      38,      27,      30,      29
      26,      30,      29,      25,      23,      24,      18,      27
      22,      31,      30,      36,      17,      25,      24,      22
      19,      30,      28,      20,      27,      28,      25,      28
      22,      26,      23,      19,      23,      26,      15,      24
      25,      24,      18,      21,      17,      22,      27,      30
      22,      32,      23,      24,      35,      15,      23,      21
      26,      19,      23,      22,      25,      27,      27,      25
      31,      23,      29,      19,      29,      25,      29,      21
      30,      19,      27,      35,      17,      21,      18,      18
      23,      19,      24,      29,      24,      23,      23,      18
      25,      37,      23,      22,      27,      21,      17,      18
      24,      22,      29,      21,      14,      20,      18,      26
      21,      32,      36,      26,      27,      20,      23,      25
      21,      24,      22,      24,      24,      15,      26,      17
      23,      27,      27,      26,      31,      20,      18,      15
      26,      29,      28,      21,      14,      21,      36,      22
      24,      19,      28,      24,      26,      22,      22,      21
      23,      30,      24,      23,      20,      20,      21,      21
      20,      22,      23,      24,      20,      26,      32,      15
      20,      16,      24,      19,      25,      20,      24,      22
      26,      27,      24,      24,      22,      19,      19,      27
      19,      24,      26,      26,      20,      18,      26,      26
      20,      18,      30,      23,      23,      35,      22,      22
      26,      20,      23,      23,      20,      18,      26,      17
      26,      32,      21,      31,      28,      28,      25,      22
      26,      23,      29,      19,      25,      25,      16,      20
      34,      16,      32,      22,      28,      26,      23,      30
      35,      32,      23,      32,      29,      25,      38,      46
      17,      31,      42,      26,      40,      53,      32,      40
      41,      48,      56,      64,      69,      67,      77,      67
      76,      76,      85,      77,      67,     110,     112,     121
     135,     161,     149,     164,     199,     196,     228,     228
     219,     272,     289,     328,     317,     282,     299,     228
     169,     121,     117,     110,      86,      98,      72,      71
      59,      66,      61,      49,      48,      52,      45,      36
      35,      31,      36,      38,      35,      32,      37,      26
      34,      32,      19,      35,      21,      22,      26,      31
      30,      25,      14,      22,      24,      24,      24,      23
      23,      15,      26,      22,      31,      21,      20,      21
      23,      28,      22,      16,      22,      16,      23,      21
      21,      23,      27,      19,      13,      22,      19,      19
      20,      16,      23,      21,      16,      16,      20,      25
      18,      10,      19,      19,      27,      15,      18,      17
      21,      13,      24,      26,      14,      22,      18,      24
      17,      16,      25,      17,      15,      22,      17,      21
      20,      21,      22,      16,      24,      18,      19,      19
      19,      14,      19,      19,      15,      20,      24,      11
      19,      18,      21,      15,      16,      21,      23,      25
      17,      20,      25,      23,      19,      20,      18,      17
      15,      15,      26,      18,      14,      27,      17,      31
      19,      13,      15,      20,      22,      19,      15,      14
      24,      15,      17,      22,      15,      20,      15,      19
      20,      20,      23,      19,      24,      19,      15,      20
      18,      17,      12,      17,      14,      12,      21,      21
      18,      15,      21,      16,      19,      14,      16,      20
      21,      15,      10,      13,      20,      17,      14,      18
      25,      24,      31,      14,      21,      12,      16,      12
      13,      15,      24,      21,      22,      13,      17,      24
      22,      18,      16,      12,      26,      15,      20,      23
      20,      15,      21,      19,      17,      13,      15,      17
      18,      22,      17,      16,      17,      16,      16,       8
      16,      24,      15,      10,      19,      25,      22,      20
      24,      16,      22,      28,      17,      17,      15,      22
      17,      16,      25,      19,      14,      17,      20,      18
      20,      22,      19,       9,      24,      12,      29,      15
      22,      20,      13,      21,      24,      22,      15,      22
      20,      19,      25,      23,      22,      11,      17,      23
      22,      18,      12,      19,      31,      23,      29,      26
      28,      25,      14,      23,      30,      22,      22,      18
      18,      26,      16,      31,      20,      28,      28,      19
      16,      22,      31,      30,      17,      17,      30,      30
      30,      37,      37,      35,      36,      27,      24,      24
      32,      18,      30,      30,      15,      25,      28,      25
      26,      25,      14,      21,      19,      29,      17,      20
      20,      22,      18,      26,      25,      20,      30,      29
      37,      27,      36,      24,      26,      26,      18,      38
      29,      27,      40,      46,      50,      49,      76,      66
      76,      72,      88,      94,      86,      98,     100,     102
      88,      86,     114,      85,      76,      86,      76,      64
      83,      77,      59,      72,      71,      74,      79,      67
      67,      64,      55,      71,      56,      62,      61,      55
      62,      50,      49,      52,      56,      55,      48,      61
      46,      52,      42,      48,      49,      49,      46,      50
      45,      50,      55,      44,      55,      52,      52,      42
      56,      48,      32,      38,      46,      52,      50,      46
      50,      44,      46,      44,      56,      49,      40,      44
      44,      53,      44,      40,      34,      50,      38,      41
      42,      32,      35,      41,      42,      41,      44,      44
      42,      36,      50,      48,      42,      50,      35,      38
      42,      38,      48,      40,      34,      34,      34,      37
      27,      44,      48,      26,      48,      38,      32,      46
      37,      36,      34,      37,      42,      32,      37,      46
      48,      30,      37,      32,      36,      32,      29,      41
      35,      32,      32,      46,      36,      35,      46,      38
      46,      44,      36,      36,      35,      49,      29,      42
      38,      32,      50,      42,      32,      25,      32,      42
      32,      35,      34,      50,      31,      38,      44,      30
      26,      46,      40,      41,      27,      35,      36,      49
      35,      24,      41,      41,      44,      41,      32,      36
      37,      38,      41,      49,      42,      37,      42,      35
      50,      40,      32,      32,      38,      30,      40,      35
      27,      37,      48,      42,      34,      32,      41,      36
      38,      32,      41,      28,      38,      31,      32,      44
      52,      31,      36,      35,      38,      38,      44,      34
      32,      44,      24,      34,      46,      40,      55,      40
      50,      29,      48,      41,      62,      62,      53,      42
      53,      66,      77,      48,      72,      81,      83,      92
      86,      98,     123,      98,     123,     135,     144,     182
     166,     185,     202,     256,     279,     262,     296,     292
     292,     310,     317,     272,     256,     207,     180,     172
     135,     121,     112,     114,      90,      81,      83,      88
      76,      66,      69,      56,      77,      62,      59,      66
      69,      56,      48,      48,      34,      56,      48,      34
      32,      34,      36,      31,      35,      38,      36,      25
      31,      27,      42,      46,      34,      34,      34,      23
      29,      31,      36,      32,      21,      29,      27,      38
      27,      25,      37,      25,      36,      26,      31,      30
      27,      38,      37,      22,      29,      25,      31,      21
      22,      32,      20,      28,      27,      30,      29,      27
      22,      27,      31,      35,      29,      24,      22,      17
      14,      29,      26,      22,      22,      21,      24,      23
      24,      25,      18,      16,      21,      26,      29,      29
      20,      27,      27,      22,      28,      23,      26,      19
      26,      20,      22,      20,      20,      25,      26,      20
      30,      32,      25,      31,      25,      26,      22,      29
      23,      21,      24,      35,      20,      25,      21,      15
      24,      28,      18,      23,      25,      35,      29,      24
      25,      29,      19,      32,      22,      22,      32,      31
      31,      21,      19,      23,      23,      22,      25,      19
      29,      21,      22,      35,      24,      18,      22,      18
      24,      25,      23,      25,      19,      26,      24,      26
      21,      30,      23,      26,      20,      28,      22,      23
      25,      24,      18,      16,      22,      30,      24,      14
      35,      27,      23,      22,      17,      27,      22,      20
      20,      28,      16,      22,      23,      28,      23,      23
      13,      26,      19,      20,      27,      15,      26,      31
      23,      22,      16,      19,      23,      31,      21,      30
      19,      20,      38,      24,      30,      28,      30,      32
      20,      20,      25,      28,      20,      23,      32,      18
      22,      26,      23,      28,      21,      18,      23,      19
      23,      16,      24,      21,      26,      20,      23,      25
      25,      22,      21,      22,      29,      29,      27,      24
      23,      35,      21,      29,      24,      19,      27,      28
      27,      21,      34,      40,      31,      32,      32,      31
      27,      38,      34,      56,      59,      76,      88,      94
      98,      94,      77,      66,      62,      49,      30,      38
      32,      25,      36,      31,      29,      28,      28,      22
      26,      25,      22,      25,      28,      28,      27,      24
      27,      20,      26,      24,      22,      29,      23,      19
      24,      32,      28,      25,      20,      24,      27,      30
      26,      29,      38,      22,      17,      29,      34,      26
      19,      24,      30,      24,      21,      29,      26,      25
      26,      30,      22,      34,      29,      18,      30,      36
      24,      21,      17,      24,      16,      31,      18,      26
      28,      24,      17,      24,      36,      21,      16,      31
      31,      27,      31,      26,      19,      22,      29,      19
      25,      29,      28,      30,      32,      30,      29,      19
      25,      22,      24,      29,      34,      23,      30,      29
      21,      32,      31,      21,      32,      23,      31,      35
      35,      29,      20,      24,      27,      31,      27,      21
      32,      21,      26,      29,      32,      28,      21,      26
      30,      25,      34,      25,      31,      30,      16,      27
      29,      29,      29,      31,      30,      30,      38,      17
      20,      29,      29,      32,      34,      38,      29,      32
      22,      27,      30,      27,      21,      37,      38,      24
      27,      29,      27,      29,      26,      32,      34,      22
      44,      35,      28,      38,      46,      59,      38,      44
      53,      62,      72,      48,      50,      72,      66,      76
      71,      59,      67,      67,      59,      50,      50,      55
      59,      66,      66,      55,      66,      50,      62,      72
      49,      66,      58,      62,      66,      81,      83,      86
      77,      71,      58,      77,      71,      85,      71,      86
      96,      81,      79,      72,      72,      79,      76,      92
      96,      71,      86,      72,      71,      72,      81,      77
      79,      67,     106,      77,      86,      71,      77,      94
      98,      98,      90,     104,      92,      86,     104,      90
      86,      92,     104,      96,     108,     114,     102,     132
     110,     130,     128,     137,     154,     174,     199,     237
     279,     299,     384,     346,     372,     380,     346,     306
     269,     237,     202,     193,     193,     193,     188,     154
     174,     177,     222,     199,     213,     207,     262,     269
     253,     282,     296,     310,     276,     299,     320,     276
     286,     234,     237,     204,     213,     185,     196,     180
     199,     164,     193,     151,     166,     164,     139,     154
     144,     164,     149,     151,     144,     161,     156,     169
     177,     188,     204,     159,     202,     216,     196,     177
     182,     169,     164,     156,     159,     166,     159,     161
     128,     154,     137,     128,     151,     151,     139,     139
     149,     123,     130,     123,     114,     104,     102,     110
     106,     104,     100,     104,      98,      85,      85,      67
      86,      76,      59,      83,      62,      71,      58,      69
      77,      83,      71,      62,      71,      72,      77,      62
      79,      67,      62,      71,      66,      77,      69,      62
      64,      66,      66,      72,      69,      61,      62,      46
      55,      38,      71,      53,      48,      55,      50,      59
      50,      53,      37,      61,      59,      56,      53,      62
      50,      62,      62,      64,      76,      67,      55,      59
      67,      58,      59,      53,      48,      55,      48,      48
      59,      53,      50,      46,      52,      62,      40,      56
      59,      56,      56,      66,      41,      48,      50,      48
      48,      44,      49,      40,      50,      46,      50,      48
      59,      52,      50,      56,      52,      48,      50,      56
      46,      52,      52,      44,      48,      50,      46,      48
      49,      53,      42,      50,      52,      45,      38,      48
      50,      46,      53,      38,      49,      36,      53,      58
      61,      42,      52,      37,      59,      50,      38,      34
      50,      52,      53,      50,      44,      46,      55,      40
      48,      55,      48,      58,      48,      44,      45,      38
      53,      56,      49,      48,      46,      50,      55,      49
      48,      49,      49,      62,      48,      50,      62,      37
      62,      41,      56,      45,      44,      36,      59,      58
      67,      45,      64,      49,      58,      53,      53,      45
      58,      53,      61,      62,      46,      61,      56,      61
      46,      59,      48,      64,      61,      52,      48,      52
      56,      53,      49,      56,      53,      55,      56,      38
      56,      45,      66,      61,      62,      55,      62,      56
      53,      38,      62,      74,      56,      67,      71,      53
      55,      55,      61,      62,      85,      66,      74,      83
      86,      72,     100,      83,      76,     102,     123,     121
     121,     119,     123,     135,     130,     144,     108,     106
     112,     102,      98,     102,     106,      79,      96,      71
      90,      74,      71,      79,      81,      69,      67,      85
      67,      72,      56,      67,      62,      67,      67,      64
      46,      55,      50,      67,      62,      64,      52,      56
      56,      56,      71,      66,      66,      81,      62,      74
      76,      76,      77,      96,      94,      96,      96,     146
     125,     123,     139,     119,     108,     102,      86,      98
      88,      88,      98,      74,      72,      71,      77,      56
      66,      67,      62,      85,      69,      50,      71,      50
      61,      48,      59,      59,      50,      53,      46,      41
      59,      58,      53,      50,      44,      53,      48,      48
      53,      41,      48,      48,      45,      58,      53,      59
      48,      36,      44,      38,      42,      46,      44,      38
      36,      40,      49,      45,      40,      35,      52,      37
      45,      56,      50,      53,      41,      64,      79,      86
      74,      77,      85,      79,      59,      71,      66,      71
      52,      50,      58,      44,      41,      44,      29,      38
      35,      37,      28,      25,      36,      28,      37,      32
      37,      38,      32,      34,      44,      32,      41,      25
      37,      38,      34,      35,      30,      38,      32,      32
      29,      29,      31,      32,      32,      30,      31,      34
      30,      20,      37,      27,      36,      30,      26,      34
      30,      30,      26,      36,      37,      37,      34,      32
      31,      38,      29,      32,      23,      25,      34,      28
      27,      36,      25,      25,      19,      32,      40,      36
      32,      38,      30,      35,      32,      31,      29,      23
      36,      29,      31,      25,      31,      40,      28,      35
      32,      32,      32,      34,      18,      30,      27,      24
      30,      38,      31,      32,      34,      26,      38,      20
      31,      32,      22,      25,      31,      31,      22,      29
      29,      42,      35,      31,      35,      36,      31,      26
      26,      41,      38,      40,      37,      27,      30,      30
      32,      29,      31,      28,      30,      38,      25,      29
      37,      28,      16,      27,      25,      28,      24,      35
      28,      30,      24,      38,      27,      32,      34,      31
      23,      28,      35,      29,      37,      20,      28,      30
      30,      32,      32,      31,      49,      25,      32,      30
      31,      35,      15,      32,      31,      35,      12,      26
      32,      27,      32,      29,      38,      32,      32,      30
      40,      37,      35,      21,      28,      29,      27,      27
      38,      35,      36,      25,      30,      27,      25,      41
      41,      38,      24,      30,      32,      24,      32,      30
      32,      30,      32,      29,      29,      50,      31,      35
      36,      34,      40,      38,      29,      27,      35,      42
      37,      38,      26,      29,      27,      32,      30,      34
      38,      38,      31,      50,      48,      50,      30,      31
      34,      38,      40,      37,      35,      38,      40,      44
      40,      59,      50,      55,      44,      44,      53,      46
      48,      49,      52,      56,      46,      44,      44,      40
      44,      35,      50,      53,      48,      53,      50,      58
      44,      56,      49,      36,      52,      40,      49,      44
      44,      37,      38,      50,      42,      48,      50,      53
      41,      42,      58,      59,      45,      64,      56,      62
      67,      52,      67,      61,      67,      56,      74,      56
      76,      72,      83,      79,      85,      94,      74,      90
      98,      77,      86,      76,      81,      67,      67,      53
      56,      50,      59,      62,      61,      46,      58,      44
      44,      56,      52,      48,      48,      41,      50,      62
      38,      56,      38,      49,      56,      55,      44,      45
      42,      56,      41,      44,      44,      49,      38,      44
      55,      61,      46,      53,      50,      58,      46,      52
      56,      48,      42,      48,      55,      76,      45,      44
      44,      53,      56,      59,      59,      64,      56,      59
      58,      58,      61,      48,      59,      62,      67,      62
      62,      83,      66,      67,      67,      61,      77,      77
      59,      90,      66,      72,      67,      77,      85,      71
      72,      83,      71,      67,      67,      59,      66,      58
      69,      59,      58,      59,      74,      59,      76,      58
      66,      61,      56,      56,      71,      62,      71,      66
      62,      49,      58,      62,      71,      66,      38,      66
      66,      61,      67,      74,      85,      81,      90,      83
      94,      83,      86,      94,      59,      79,      67,      77
      50,      56,      50,      79,      50,      56,      50,      55
      49,      53,      48,      48,      53,      62,      50,      59
      50,      53,      38,      56,      49,      49,      53,      44
      55,      40,      55,      41,      48,      48,      44,      50
      55,      48,      38,      45,      48,      42,      56,      40
      35,      38,      44,      48,      38,      53,      48,      27
      40,      32,      41,      44,      46,      35,      32,      40
      44,      42,      37,      46,      38,      36,      48,      45
      29,      41,      48,      42,      44,      37,      50,      42
      45,      34,      32,      32,      34,      44,      46,      35
      34,      49,      41,      48,      32,      48,      42,      28
      41,      45,      41,      42,      34,      40,      44,      29
      45,      41,      40,      38,      41,      48,      40,      30
      27,      40,      40,      32,      42,      37,      38,      37
      38,      42,      41,      38,      31,      38,      35,      40
      34,      30,      44,      45,      34,      31,      32,      30
      38,      34,      32,      42,      38,      32,      32,      30
      30,      38,      36,      37,      28,      28,      38,      35
      31,      48,      35,      30,      37,      38,      48,      28
      50,      38,      48,      42,      50,      48,      44,      58
      45,      74,      79,     123,     117,     128,     128,     125
     123,     119,     100,      98,      94,      92,     102,     104
      92,      76,      71,      66,      56,      52,      44,      44
      41,      44,      55,      42,      50,      38,      31,      38
      36,      40,      44,      31,      27,      29,      37,      31
      28,      46,      56,      44,      36,      41,      38,      34
      37,      38,      38,      38,      35,      44,      30,      44
      26,      40,      29,      34,      28,      36,      46,      44
      41,      44,      50,      50,      29,      34,      30,      44
      52,      35,      36,      38,      44,      37,      38,      49
      45,      41,      28,      53,      32,      49,      34,      61
      58,      50,      50,      37,      66,      50,      42,      48
      38,      41,      44,      41,      40,      50,      50,      59
      56,      52,      59,      50,      53,      41,      55,      62
      52,      50,      41,      59,      61,      66,      55,      58
      58,      56,      44,      48,      59,      67,      66,      72
      72,      50,      61,      81,      79,      50,      62,      77
      92,      74,      88,      81,      98,      96,      67,      98
     104,      98,      88,     112,      88,     102,     104,     119
     137,     132,     132,     125,     137,     132,     154,     156
     149,     142,     154,     185,     199,     193,     234,     222
     204,     237,     246,     272,     266,     243,     234,     269
     231,     228,     228,     225,     213,     216,     207,     193
     169,     196,     164,     180,     137,     112,     137,     128
     154,     125,     144,     106,     114,     112,     100,     110
     112,      88,     106,     106,      96,      90,      98,      96
      76,      85,      72,     104,      98,      85,      88,      90
      94,     102,      86,      94,      88,     106,      79,      98
      96,     100,      98,     125,     110,     112,      98,     114
     135,     130,     135,     128,     117,     119,     119,     121
     139,     149,     123,     117,     130,     117,     123,     123
     104,     119,     104,      94,      83,      90,      98,      98
      79,      67,      71,      85,      85,      69,      71,      59
      59,      64,      50,      71,      58,      58,      77,      74
      62,      53,      66,      48,      79,      71,      83,      83
     102,     125,     135,     144,     166,     149,     182,     159
     174,     117,     128,     102,     144,     114,     108,     123
     100,      77,      86,      77,      71,      79,      64,      55
      62,      66,      48,      59,      58,      49,      66,      53
      42,      53,      56,      50,      36,      46,      59,      45
      34,      44,      49,      59,      55,      50,      56,      42
      62,      42,      56,      55,      48,      37,      45,      49
      46,      61,      61,      53,      48,      59,      56,      64
      45,      40,      61,      50,      53,      49,      41,      53
      38,      44,      42,      50,      37,      44,      42,      36
      40,      40,      44,      44,      32,      38,      32,      32
      37,      36,      36,      30,      41,      41,      37,      44
      31,      41,      38,      38,      41,      52,      42,      37
      31,      21,      41,      35,      34,      29,      38,      32
      41,      32,      32,      44,      27,      38,      35,      38
      31,      35,      38,      36,      42,      27,      40,      38
      41,      46,      38,      38,      40,      42,      37,      31
      34,      35,      34,      36,      26,      35,      31,      40
      27,      36,      35,      31,      34,      53,      36,      45
      44,      41,      35,      37,      49,      32,      38,      32
      32,      50,      49,      46,      44,      53,      42,      48
      32,      45,      41,      49,      50,      48,      48,      52
      48,      55,      45,      42,      44,      48,      44,      45
      48,      56,      41,      38,      42,      38,      46,      44
      32,      38,      42,      48,      41,      27,      32,      40
      37,      44,      37,      32,      44,      32,      38,      45
      29,      31,      32,      38,      44,      36,      34,      32
      21,      40,      36,      48,      32,      32,      29,      44
      35,      34,      34,      37,      32,      29,      34,      42
      27,      31,      30,      44,      21,      36,      28,      30
      28,      26,      25,      27,      37,      32,      29,      28
      28,      38,      42,      31,      35,      25,      25,      32
      38,      28,      27,      30,      29,      41,      19,      29
      29,      23,      38,      20,      26,      32,      30,      37
      36,      38,      41,      30,      25,      34,      32,      32
      22,      23,      30,      31,      35,      38,      28,      17
      31,      25,      24,      26,      31,      21,      23,      28
      28,      35,      30,      32,      30,      30,      24,      34
      32,      29,      42,      32,      42,      30,      30,      32
      44,      23,      26,      28,      27,      23,      32,      24
      31,      36,      31,      24,      40,      24,      31,      34
      38,      28,      48,      38,      27,      29,      27,      29
      20,      28,      23,      32,      26,      29,      26,      34
      34,      24,      35,      29,      37,      20,      32,      20
      34,      35,      27,      32,      23,      27,      32,      38
      26,      24,      29,      38,      28,      38,      27,      24
      26,      29,      41,      35,      35,      37,      25,      31
      29,/
