SampleIdent,ck  Spl Mag-1 sample,/
Title1,Ocean Drilling Program Leg 201,/
Title2,PC-APD Software Version 3.6f,/
DiffrType,PW1710,/
DiffrNumber,1,/
Anode,Cu,/
LabdaAlpha1, 1.54056,/
LabdaAlpha2, 1.54439,/
RatioAlpha21, 0.50000,/
DivergenceSlit,Automatic, 12,/
ReceivingSlit,0.2,/
MonochromatorUsed,NO  ,/
GeneratorVoltage,  40,/
TubeCurrent,  35,/
FileDateTime, 8-Mar-2002 12:59,/
DataAngleRange,   2.0000,  60.0000,/
ScanStepSize,   0.020,/
ScanType,STEP,/
ScanStepTime,    1.00,/
RawScan
     202,     199,     199,     216,     193,     182,     180,     172
     202,     172,     185,     185,     182,     185,     216,     177
     188,     154,     172,     193,     180,     142,     177,     164
     182,     161,     156,     169,     154,     177,     156,     164
     185,     144,     132,     164,     144,     146,     159,     144
     169,     149,     149,     137,     132,     139,     166,     137
     132,     121,     156,     123,     151,     149,     142,     159
     135,     135,     139,     135,     139,     100,     121,     142
     142,     123,     128,     128,     123,     139,     146,     121
     121,     123,     110,     151,     144,     139,     154,     144
     114,     132,     139,     121,     135,     142,     159,     154
     146,     149,     144,     114,     121,     154,     132,     130
     142,     125,     128,     156,     130,     125,     106,     125
     104,     114,     112,     119,     104,     125,     121,     130
     125,     110,     121,     125,     119,     117,     123,     106
     130,     130,     123,     135,     123,     114,     137,     121
     121,     121,     135,     139,     114,     117,     112,     121
     112,     114,      98,     102,     117,     110,     123,     114
     121,     102,     106,     104,     123,     123,      94,      88
     114,     125,     132,     123,     108,      74,     102,      90
     108,     125,     119,     114,     119,     112,     108,     112
     100,     104,     137,     108,      94,      96,     104,     104
      76,     112,     112,     106,     139,     100,      98,      94
     108,      94,     119,      96,     104,     117,      90,     100
     106,     112,     110,      96,      90,      79,     119,      79
      83,      98,     123,     108,      90,     119,      94,     128
      86,     112,     104,      92,      92,     100,     117,     114
     121,     125,     104,     121,     117,     123,     110,     117
     121,      98,     104,     102,     119,      90,      88,     102
     106,     100,     112,     110,     104,      88,     104,     106
      92,      92,      96,      94,      88,      92,     117,      88
      96,      85,      88,      90,     104,      85,      96,     102
      79,     104,      88,      92,     106,      96,      86,      83
      94,      83,      79,      81,      96,      98,     106,      81
      88,      79,      61,      85,      72,      77,      83,      76
      77,      83,      92,      88,      86,      85,      98,      79
      79,      94,      79,      79,      76,      86,      86,      92
     102,      85,      92,      79,      71,      94,      85,      88
      62,      83,      83,      81,      83,      85,      83,      79
      64,      98,      85,      92,      62,     106,      74,      85
      79,      85,      83,      88,      92,      86,      83,      86
      83,      79,     106,      85,      83,      77,      88,      96
      76,      88,      79,      79,      77,     110,     106,     112
     100,      86,      90,     106,      77,      83,      79,      79
      83,      85,      77,      76,      74,      77,      76,      81
      62,      66,      79,      66,      69,      77,      58,      59
      81,      86,      77,      85,      92,      79,      79,      71
      88,      72,      72,      77,      81,      76,      64,      79
      85,      74,      76,      59,      72,      83,      79,      66
      56,      86,      71,      61,      94,      77,      86,      67
      59,      77,      56,      62,      72,      79,      79,      81
      71,      67,      86,      72,      81,      62,      85,      77
      79,      69,      66,      67,      92,      79,      69,      72
      77,      88,      69,      66,      85,      62,      71,      76
      83,      67,      76,      72,      62,      66,      85,      53
      77,      76,      94,      71,      50,      71,      83,      79
      85,      66,      67,      86,      77,      66,      71,      76
      85,      62,      55,      85,      77,      72,      67,      79
      67,      69,      64,      58,      69,      79,      62,      72
      71,      83,      69,      76,      62,      62,      67,      72
      61,      76,      76,      67,      77,      76,      85,      71
      58,      69,      61,      83,      76,      76,      86,      76
      71,      64,      72,      71,      67,      71,      71,      67
      77,      66,      76,      71,      79,      77,      59,      74
      76,      72,      81,      72,      67,      71,      83,      56
      61,      85,      86,      71,      79,      88,      88,      83
      76,      96,      85,      67,      85,      74,      72,      81
      76,      64,      62,      61,      59,      62,      72,      67
      74,      76,      64,      62,      72,      67,      67,      76
      71,      85,      52,      88,      62,      66,      74,      59
      77,      61,      66,      74,      77,      77,      69,      74
      66,      72,      85,      61,      81,      66,      88,      67
      59,      62,      62,      77,      61,      74,      81,      71
      79,      79,      53,      86,      83,      79,      62,      58
      81,      69,      66,      59,      86,      71,      72,      71
      67,      74,      76,      62,      64,      71,      76,      79
      83,      81,      83,      56,      67,      81,      59,      76
      83,      83,      67,      77,      62,      67,      71,      66
      71,      81,      67,      72,      74,      71,      72,      92
      69,      72,      88,      85,      81,      62,      71,      67
      76,      67,      59,      72,      74,      55,      81,      67
      71,      72,      77,      66,      62,      74,      67,      83
      67,      72,      66,      83,      69,      66,      66,      81
      66,      72,      74,      85,      77,      61,      58,      67
      71,      62,      66,      72,      94,      72,      71,      61
      83,      74,      77,      79,      74,      98,      79,      71
      79,      85,      79,      72,      90,      59,      76,      67
      64,      62,      77,      62,      81,      90,      92,      71
      76,      85,      79,      61,      86,      62,      85,      83
      62,      79,      85,      74,      76,      69,      79,      85
      59,      62,      81,      92,      86,      85,      69,      76
      76,      76,      85,      88,      76,      71,      71,      76
      74,      64,      83,      77,      83,      76,      94,      76
      77,      79,      88,      55,      83,      83,      67,      85
      92,      72,      76,      74,      79,      88,      86,      74
      61,      83,      76,      76,      79,      98,      77,      79
     100,      90,      76,      86,      85,      74,      67,      92
      77,      79,      67,      67,      79,      83,      72,      79
      94,      92,      85,      90,      85,      86,     114,      86
      92,      85,      83,      85,      86,      72,      81,      92
      88,     104,      88,      88,      79,      94,      77,      90
      86,      71,      86,      74,      98,      72,      94,      90
     102,     100,      85,      72,      92,      98,      77,      81
      76,      86,      94,      90,      79,      86,      71,      83
      83,      96,      90,      86,      90,     106,      86,      85
      94,      88,      98,      92,      88,      83,      76,      98
      72,      92,      86,      98,      92,      92,      88,      94
      92,     104,      88,      94,      98,      98,      90,      85
      88,      83,      98,      79,     102,      85,      94,      83
      88,      90,     100,      94,      88,     104,      86,      85
     100,      81,      90,      92,     104,      94,      86,      90
      92,      94,      90,      98,      92,     102,      92,     102
     106,      94,      71,     112,      92,      94,      98,      92
     104,     117,      86,      96,      96,      90,      92,      90
      88,      86,      98,     106,     114,      88,     104,      85
      86,      96,      88,      98,      94,      88,     104,     106
     102,     121,     102,     123,     106,     112,     119,     106
     104,     130,     104,     112,     112,     110,     112,     130
     128,     161,     154,     125,     151,     130,     137,     110
      96,     102,     117,     108,     104,     123,     106,     100
     100,     108,     119,      90,     104,     100,     104,     102
     106,     102,     128,     104,     110,     112,     106,     114
     137,     100,     114,     117,     125,     102,     135,     125
     144,     125,     112,     112,     137,     123,     110,     125
     114,     117,     125,     130,     112,     128,     132,     104
     125,     128,     142,     121,     130,     135,     121,     121
     114,     119,     123,     117,     102,     128,      98,     119
     114,     106,     108,     135,     139,     114,     114,     114
     108,     104,     110,     110,     102,     139,     106,     108
     114,     114,     128,     114,     132,     106,     121,     110
      96,     112,     128,     128,     119,     128,     106,     128
     132,     110,     119,     117,     125,      98,     130,     119
     142,     137,     112,     125,     106,     130,     106,     117
     130,     119,     112,     137,     114,     110,     119,     119
     123,     123,     130,     130,     128,     135,     110,     137
     149,     159,     130,     149,     135,     139,     130,     137
     137,     149,     121,     128,     110,     112,     130,     125
     119,     123,     114,     137,     130,     139,     137,     119
     149,     128,      85,     114,     132,     128,     139,     130
     142,     135,     114,     146,     137,     123,     121,     135
     123,     130,     128,     121,     142,     130,     125,     121
     125,     110,     144,     125,     121,     130,     130,     128
     121,     146,     125,     128,     121,     123,     128,     137
     137,     110,     123,     137,     139,     125,     135,     130
     135,     121,     137,     117,     112,     137,     125,     135
     137,     130,     130,     130,     110,     121,     137,     128
     114,     128,     139,     121,     117,     123,     132,     112
     130,     142,     121,     106,     135,     108,     135,     125
     137,     130,     130,     149,     125,     123,     149,     119
     137,     121,     121,     137,     128,     125,     110,     137
     130,     117,     106,     130,     132,     123,     104,     130
     139,      98,     112,     132,     142,     119,     114,     117
     135,     130,     137,     149,     130,     135,     135,     125
     144,     149,     169,     177,     177,     182,     202,     219
     237,     299,     328,     369,     324,     380,     331,     331
     259,     204,     196,     172,     169,     137,     137,     151
     135,     123,     128,     125,     130,     128,     128,     159
     156,     130,     142,     149,     135,     135,     156,     130
     132,     144,     130,     128,     130,     125,     151,     130
     142,     159,     135,     146,     137,     123,     146,     159
     119,     151,     151,     125,     121,     142,     149,     128
     159,     182,     172,     180,     164,     174,     193,     182
     193,     169,     216,     213,     174,     204,     219,     216
     246,     207,     213,     182,     177,     156,     169,     161
     146,     149,     139,     139,     159,     156,     188,     174
     156,     159,     164,     149,     135,     149,     130,     137
     121,     144,     130,     123,     114,     110,     135,     121
     123,     125,     110,     128,     137,     128,     114,     123
     125,     128,     121,     142,     119,     121,     142,     123
     117,     149,     207,     231,     234,     199,     188,     216
     174,     142,     130,     110,     121,     121,     117,     144
     121,     144,     110,     137,     154,     146,     137,     146
     146,     144,     139,     114,     151,     119,     121,     132
     137,     114,     119,     151,     128,     135,     128,     121
     139,     128,     130,     137,     128,     128,     137,     121
     121,     130,     144,     123,     119,     106,     108,     144
     128,     110,     100,     121,     110,     125,     110,     112
     114,     117,     130,     110,     114,     128,     130,     121
     128,     108,     135,     130,     125,     125,     128,     117
     132,     154,     132,     139,     130,     132,     142,     137
     154,     132,     146,     130,     161,     159,     128,     149
     112,     128,     132,     139,     123,     121,     102,     130
      96,     108,     112,     119,     108,     119,     130,     108
     130,     110,     102,     112,     144,     132,     112,     137
     144,     125,     164,     146,     144,     174,     177,     149
     169,     188,     196,     219,     193,     303,     289,     306
     306,     256,     262,     219,     180,     164,     142,     130
     123,     142,     121,     112,     121,     119,     121,     123
     106,     117,     106,     128,     123,     121,     123,     110
     112,     108,     110,     121,     102,     100,     112,     117
     108,      94,     104,     119,     132,     130,     123,     123
     106,     114,     119,     110,     112,     121,     108,     110
     104,     114,     100,     110,     125,     110,     112,     112
     117,     123,     137,     108,     106,     110,     110,     104
      88,     102,     135,     114,     102,      92,      98,     104
     106,      90,     104,     119,      98,     108,     104,      98
     112,     102,      96,     114,     100,      94,      92,     112
      92,     100,      96,     104,     106,     121,     110,     102
     100,     106,     106,     117,     106,      92,     121,     112
     121,     110,      94,     106,     104,      92,     121,     102
     102,     102,      96,     102,      94,     100,     106,     100
      92,     104,      94,      98,      94,     104,      96,     106
     117,      98,     108,     117,      88,      98,     110,     108
      90,     117,     114,     112,      94,     123,     114,     108
      96,      85,      85,     102,      98,     108,     102,     112
     106,      79,      98,     110,     102,     112,     110,      96
      98,     108,     121,     117,      88,     119,     112,      74
      96,      94,     102,      86,      96,      77,      85,     102
      83,     104,     104,     102,     151,     196,     182,     149
     142,     154,     146,     146,     132,     125,     114,     119
     114,     114,     119,     110,     117,     108,     121,     108
     121,     104,      98,      81,      79,     102,      94,     100
      94,     117,      98,      92,     104,      88,      85,      85
      83,      88,      94,      90,      79,      88,      94,      98
     108,      90,      96,      85,     106,      86,      76,      92
      94,      81,     100,      77,     110,      98,      86,      88
     102,     114,      98,     117,      90,     104,     106,     104
      96,     114,      85,      88,      85,      85,      79,      81
      83,      76,      77,      86,      98,      98,      88,      83
      90,      83,      83,      86,     102,      90,      71,      86
      83,      83,      88,      76,      79,      98,      83,      83
      96,      98,      90,      86,      90,      94,     100,      98
      88,      96,      98,      86,      96,     112,      85,      72
      79,      81,     104,      88,      88,     100,      83,      81
      85,      79,      83,      94,      88,     102,      83,      76
      85,     100,      79,      85,      92,      79,      79,      72
      85,      98,      81,      85,      90,      66,      86,      96
      96,     106,     100,     110,     121,     121,     130,     108
      96,     100,      92,      88,      86,      74,      85,      85
      76,      77,      86,      69,      85,      72,      86,      72
      74,      90,      90,      92,      85,      77,      76,      85
      72,      94,      74,      88,      85,      86,      81,      94
      92,     100,      90,      88,      83,      88,      86,      79
      59,      72,      83,      77,      76,      86,      83,      96
      94,      86,      86,      88,     110,      98,     106,      88
     106,      83,      83,      77,      90,      85,      71,      71
      59,      83,      77,     106,      72,      69,      85,      88
      72,      83,      81,      90,      76,      69,      83,      85
      77,      76,      79,     106,      77,      72,      79,      76
      85,      77,      86,      88,      72,     100,     102,      85
      81,     106,     110,      94,      72,      72,      92,      81
      96,      88,      69,      74,      88,      83,      79,      67
      92,      81,      62,      85,      86,      88,      85,      77
      96,      71,     106,      79,      76,      83,      92,      86
      79,      77,      94,      92,      77,      74,      88,      72
      72,      81,      88,      94,      92,      94,      90,      71
      88,     100,      83,      86,      72,      66,      76,      81
      96,      85,      86,      92,      85,      83,      92,      76
      88,      90,      94,      79,      88,      81,      88,      72
      74,      74,      85,      94,      72,      81,      86,      71
     100,      83,      85,      90,      74,      76,      76,      94
      94,      96,      83,      72,      76,     104,      88,      96
      92,      86,      94,      71,      88,     108,     100,      92
      96,      96,      96,     104,      77,      88,      77,      83
      98,      88,      86,      98,      92,      85,      77,      71
      83,      76,      81,      79,      94,      79,      90,      92
      90,     100,      90,      77,      94,      85,      88,      77
      85,      92,      81,      81,      76,      77,      79,      90
      88,      90,      92,      90,      86,      83,      92,      83
      76,      96,      79,      85,      79,      85,      59,      88
      98,      85,      96,      77,      76,      83,      90,      76
      79,      79,      71,      90,      88,      90,     100,     108
      85,      86,      98,     102,      94,      96,      83,      88
      98,     108,      90,      96,      94,     100,     106,      92
      96,     104,      81,      92,     106,     104,     128,     149
     210,     185,     110,     102,     132,     135,     161,     135
     139,     151,     142,     151,     154,     117,     130,     108
     123,      96,     108,      96,     117,      88,      94,     104
     114,     117,      90,     112,     119,     119,     100,      98
      96,     106,     112,      86,     106,      90,      85,     100
      85,     104,     117,     100,      86,     108,     102,     117
      96,     137,     121,     144,     121,     108,     139,     114
     123,     117,     114,     104,     108,     121,      92,      98
      96,      79,      85,      79,      92,      77,      92,      85
      85,      88,      90,     100,      94,      96,      90,      94
      79,      83,      92,      83,      90,     106,      92,      94
      88,      90,      94,      86,     100,      88,      83,      96
      88,      59,      90,      79,      83,      67,      86,      76
      77,      79,      90,      79,      77,      85,      76,      81
      79,      74,      76,      86,      77,      81,      76,      85
      88,     108,      71,      79,      67,      79,      77,      69
     100,      86,      79,      96,      86,      79,      79,      85
      98,      76,      77,      85,      98,      92,      85,      86
      88,      71,      88,      86,      72,     104,      77,      77
      83,      94,      90,      96,      79,      92,      90,     100
      88,      88,     110,      85,      83,      72,      76,      74
      83,      66,      83,      71,      72,      76,      88,      94
      76,      74,      88,      77,      62,      86,      76,      92
      96,     110,      71,      88,      98,      90,      72,      76
      83,      92,      67,      86,      88,      86,      79,      79
      90,      79,      83,      92,      81,      98,      98,      81
      81,      81,      88,      85,      92,      79,      90,      77
      96,      71,      81,      77,      81,      98,      71,      79
      79,      86,      81,      76,      85,     114,      81,      96
     100,     142,     193,     289,     240,     132,     112,     100
     137,     182,     188,     123,     119,      96,      76,      96
      96,      94,      90,      85,      92,      88,      88,      85
      83,      90,      79,      67,      92,      81,      85,      90
      85,      88,      85,      92,     102,      90,      94,      83
     106,      85,     100,      90,     104,      92,      85,      71
      86,      96,     102,      79,     121,     119,     112,     112
     108,     108,     121,     121,     117,      83,      79,      94
      90,      77,      92,      76,      83,      83,      81,      92
      66,      85,      85,      92,      86,      76,      76,      74
      69,      96,      72,      85,      76,      86,      94,      76
      86,      86,      96,      83,      85,      98,      94,      77
      94,      90,      69,      79,      90,      79,      85,      88
      96,      86,      77,      85,      86,      94,      90,      77
      90,      86,      71,      71,      79,      86,     100,      72
      81,      81,      77,      85,      92,      76,      86,      67
      74,      86,      72,      74,      88,      83,      76,      90
      72,      92,      86,      74,      76,      83,      96,      77
      79,      76,      88,      92,      81,      86,      79,      92
      94,      88,      71,      94,      72,      77,      81,      79
      94,      85,      90,      72,      83,      74,      74,      83
      86,      76,      71,      79,      88,      86,      72,      79
      83,      76,      85,      83,      86,      88,      76,      83
      72,      66,      79,      79,      66,      86,      86,      83
      58,      79,      85,      83,      92,      90,      90,      86
      86,      81,      77,      76,      90,      76,      69,      85
      83,      81,      86,      66,      72,      86,      77,      66
      79,      76,      72,     100,      98,      85,      77,      79
      69,      88,      76,      71,      62,      88,      72,      83
      62,      74,      72,      72,      86,      86,      64,      69
      72,      81,      92,      77,      83,      67,      88,      94
      76,      96,      90,      79,      72,      66,      77,      71
      72,      85,      69,      81,      69,      85,      74,      81
      72,      76,      76,      59,      77,      74,      69,      71
      76,      76,      61,      83,      66,      67,      83,      74
      66,      69,      74,      53,      49,      72,      85,      66
      77,      67,      74,      71,      76,      59,      81,      77
      85,      71,      69,      72,      62,      86,      79,      62
      69,      72,      90,      79,      67,      64,      85,      53
      50,      79,      71,      62,      62,      67,      56,      79
      67,      50,      72,      62,      66,      58,      66,      67
      62,      59,      67,      67,      61,      62,      71,      62
      59,      56,      67,      67,      76,      62,      55,      74
      66,      66,      50,      66,      67,      66,      62,      74
      64,      67,      77,      61,      69,      67,      50,      76
      77,      56,      77,      71,      77,      72,      88,      71
      71,      88,      72,      69,      59,      88,      72,      86
      92,      81,      69,      77,      71,      72,      92,      66
      77,      59,      66,      76,      67,      67,      69,      76
      69,      69,      71,      67,      71,      62,      85,      62
      55,      52,      56,      72,      64,      71,      53,      83
      76,      72,      66,      58,      59,      81,      59,      69
      79,      58,      56,      56,      59,      66,      76,      48
      66,      71,      61,      76,      83,      62,      56,      76
      69,      64,      50,      64,      72,      59,      72,      62
      67,      71,      62,      61,      62,      62,      56,      71
      67,      67,      69,      71,      77,      61,      76,      59
      71,      83,      50,      85,      72,      55,      58,      74
      67,      72,      86,      85,      67,      62,      76,      67
      67,      77,      67,      85,      69,      74,      56,      66
      85,      59,      69,      59,      76,      74,      67,      72
      76,      85,      90,      88,      71,      67,      76,      66
      72,      69,      59,      67,      67,      56,      62,      59
      48,      50,      83,      59,      66,      64,      77,      67
      59,      71,      71,      71,      66,      64,      71,      62
      66,      72,      67,      64,      67,      67,      67,      59
      83,      67,      62,      69,      56,      76,      66,      79
      67,      79,      67,      76,      71,      83,      72,      67
      94,      71,      79,      76,      79,/
