SampleIdent,ck  Spl Mag-2 sample,/
Title1,Ocean Drilling Program Leg 201,/
Title2,PC-APD Software Version 3.6f,/
DiffrType,PW1710,/
DiffrNumber,1,/
Anode,Cu,/
LabdaAlpha1, 1.54056,/
LabdaAlpha2, 1.54439,/
RatioAlpha21, 0.50000,/
DivergenceSlit,Automatic, 12,/
ReceivingSlit,0.2,/
MonochromatorUsed,NO  ,/
GeneratorVoltage,  40,/
TubeCurrent,  35,/
FileDateTime, 8-Mar-2002 13:55,/
DataAngleRange,   2.0000,  60.0000,/
ScanStepSize,   0.020,/
ScanType,STEP,/
ScanStepTime,    1.00,/
RawScan
     213,     207,     199,     207,     210,     185,     180,     196
     190,     199,     182,     180,     177,     216,     164,     199
     202,     196,     193,     169,     174,     174,     204,     182
     159,     196,     164,     172,     164,     185,     174,     166
     159,     161,     156,     159,     172,     156,     139,     149
     159,     166,     154,     144,     137,     159,     154,     130
     149,     137,     149,     139,     144,     123,     144,     142
     132,     137,     144,     149,     123,     154,     139,     135
     121,     144,     156,     135,     130,     137,     135,     130
     130,     130,     137,     137,     132,      88,     159,     130
     139,     125,     154,     137,     112,     144,     117,     142
     142,     130,     139,     102,     114,     125,     137,     149
     119,     123,     112,     132,     139,     123,     137,     135
     132,     132,     139,     135,     128,     121,     144,     149
     123,     123,     112,     144,     114,     130,     125,     132
     117,     123,     123,     119,     108,     130,     114,     121
      98,     114,      90,     121,     130,     106,     128,     125
     117,     106,     117,     128,     130,     117,     112,     117
     121,     110,     128,     119,     132,     144,     117,     121
     110,     112,     108,     112,     106,     117,     121,     106
     112,     102,     121,     108,     149,     110,     119,     114
      94,     100,      98,     110,     100,      96,     128,     108
     102,      98,     108,      98,     119,     110,     106,      85
      90,     108,     108,     112,     119,     117,     119,     110
     108,     110,     100,     112,     104,     114,     104,      96
     102,     102,     121,     123,     117,      98,     117,     114
     108,      96,     110,     102,     110,     106,     106,     106
     100,     112,     121,      92,      94,     114,     106,     123
      79,      96,      90,     137,     104,     106,     108,     106
     121,      94,     114,     100,     106,     117,     112,      88
     104,     110,     104,     106,      86,      94,      94,      94
     100,     108,      94,     104,      88,      90,      98,      79
      90,      88,      81,      92,     110,     100,     110,      92
      94,      79,     104,      92,      83,      94,      83,      94
      76,      86,      81,      85,      96,      86,      94,      92
      86,      92,      86,      76,      92,      92,      86,      85
      92,      90,      88,      77,     100,      90,      85,      72
      77,      92,      92,      83,      81,      67,      90,      90
      83,      96,      74,      71,      94,      77,      72,      76
      88,      94,      76,      85,      77,      96,      88,      90
      77,      72,      79,      72,      88,      88,      77,      81
      83,      90,      90,      88,      92,      90,      92,      88
      85,      98,     104,     102,      83,     108,     110,     102
      94,      98,      98,      77,      88,      79,      83,      98
      79,     106,      96,      86,      83,      90,      83,      61
      66,      67,      79,      86,      92,      92,      64,      76
      85,      83,      59,      66,      83,      83,      69,      76
      85,      79,      69,      77,      62,      86,      83,      79
      77,      64,      56,      83,      71,      77,      85,      74
      64,      76,      88,      72,      72,      83,      71,      86
      79,      56,      71,      79,      56,      77,      79,      77
      69,      72,      86,      71,      72,      92,      66,      66
      66,      62,      66,      72,      76,      71,      83,     128
     234,     256,     174,     137,      85,      85,      92,      88
      72,      64,      66,      79,      88,      67,      79,      69
      79,      67,      59,      90,      72,      81,      76,      86
      77,      77,      71,      61,      67,      66,      94,      76
      83,      90,      72,      71,      72,      76,      66,      62
      85,      67,      71,      76,      64,      83,      59,      79
      83,      72,      76,      72,      85,      72,      64,      69
      76,      71,      72,      62,      72,      77,      67,      67
      77,      77,      77,      74,      67,      71,      85,      72
      71,      62,      74,      72,      74,      86,      76,      79
      76,      74,      77,      72,      79,      76,      72,      67
      81,      74,      72,      72,      83,      76,      76,      86
      81,      76,      90,      81,      79,      79,     100,      88
      83,      85,      98,     100,      71,      71,      76,      61
      85,      76,      77,      66,      72,      67,      67,      66
      81,      66,      76,      66,      90,      64,      74,      59
      86,      76,      72,      71,      71,      79,      76,      72
      72,      71,      55,      72,      69,      71,      74,      67
      66,      66,      72,      83,      85,      66,      71,     104
      76,      67,      71,      66,      79,      67,      66,      86
      86,      79,      83,      66,      72,      72,      79,      62
      83,      67,      61,      71,      66,      74,      72,      69
      71,      79,      66,      61,      64,      66,      72,      64
      76,      71,      76,      67,      74,      69,      88,      71
      69,      74,      62,      77,      71,      66,      79,      52
      67,      85,      79,      66,      77,      67,      72,      59
      69,      76,      67,      79,      81,      62,      67,      77
      83,      72,      67,      66,      71,      66,      56,      64
      85,      67,      94,      59,      69,      86,      85,      83
      88,      90,      69,      72,      53,      71,      67,      79
      81,      77,      62,      71,      66,      72,      77,      67
      61,      67,      85,      83,      85,      88,      64,      67
      71,      67,      74,      76,      79,      76,      83,      76
      83,      86,      74,      56,      67,      90,      83,      88
      76,      64,      67,      71,      88,      86,      79,      61
      83,      71,      79,      77,      90,      94,      83,      67
      76,      79,      69,      86,      76,      83,      77,      86
      85,      77,      92,      71,      74,      98,      76,      85
      94,      85,      72,      64,      72,      83,      71,      72
      86,      96,      71,      76,      62,      85,      88,      86
      85,      94,      67,      90,      88,      71,      92,      79
      76,      76,      88,      96,      86,      83,      76,      90
      77,      79,      90,      90,      85,      86,      85,      71
      83,      92,      81,      77,      83,      81,      88,      79
      81,      86,      79,      86,      94,      90,      72,      85
      86,      79,      98,      96,      94,      85,      92,      88
      79,      92,      86,      86,     102,      92,      86,      74
      77,      83,      79,      92,      94,      88,      92,      96
      86,      98,      86,      79,      69,      86,      81,      79
     100,      94,      86,      86,     100,     102,      92,     110
      74,     102,      86,      77,      83,      90,      76,      94
      98,      96,      88,      94,      88,      79,     102,      85
     102,      77,     104,     108,      92,      86,      74,     106
     119,      90,      86,      94,      92,      88,      98,     100
     102,      88,     100,     106,     100,     104,      88,     104
      92,      94,     119,     110,      92,      83,      94,      90
     106,     100,      94,     110,     102,     102,      85,      86
      77,     104,     112,      90,     106,     106,     114,     100
     110,     102,      88,     100,      79,     106,     106,      98
      79,     102,      90,     112,      92,      92,     102,      90
     112,     104,      98,      96,     104,      88,      94,      92
     114,     114,      88,     119,     106,      94,     104,      98
     110,     106,     106,      96,     119,     108,      96,     123
     104,     114,     100,     100,      94,     110,     114,     123
     114,      94,     102,     112,     121,     110,     130,     139
     149,     139,     125,     121,     110,     100,     110,     117
     108,     100,     119,     104,     100,     108,     123,     112
     110,     125,     123,     110,     110,     108,     106,     117
     112,     112,     100,     110,     110,     110,     123,     114
      86,     108,     106,     108,     106,     114,     108,      96
     112,      96,     114,     106,     104,     112,     117,     104
     102,     139,     137,     128,     121,     114,     121,     125
     137,     156,     144,     144,     128,     128,     128,     135
     121,     119,     135,     121,     112,     112,     130,     128
     114,     128,     128,     106,     121,     121,     123,     121
     125,     137,      94,     151,     125,     130,     130,     104
     123,     119,     110,     121,     106,     119,     112,     100
     125,     108,     128,     132,     123,     137,      85,     123
     128,     112,     132,     121,     132,     137,     119,     121
     130,     121,     139,     114,     112,     106,     102,     119
     117,     130,     117,     142,     130,     119,     128,     130
     112,     121,     119,     114,     125,     114,     108,     144
     119,     130,     130,     132,     112,     149,     135,     121
     146,     130,     121,     123,     132,     121,     132,     121
     151,     114,     137,     132,     130,     154,     132,     142
     121,     139,     151,     139,     135,     137,     135,     125
     123,     123,     154,     137,     110,     117,     125,     139
     108,     130,     139,     130,     114,     130,     114,     135
     112,     137,     119,     125,     128,     130,     117,     125
     102,     125,     146,     123,     125,     130,     117,     146
     132,     112,     151,     117,     159,     125,     132,     123
     137,     144,     130,     146,     130,     132,     137,     151
     130,     112,     144,     137,     135,     151,     139,     137
     130,     139,     123,     132,     119,     128,     128,     132
     128,     128,     130,     123,     121,     137,     121,     130
     123,     135,     130,     130,     110,     132,     130,     123
     149,     130,     121,     119,     144,     139,     132,     137
     121,     117,     154,     137,     130,     119,     125,     139
     110,     119,     137,     117,      94,     149,     128,     132
     137,     114,     128,     123,     130,     139,     137,     139
     139,     135,     149,     149,     154,     169,     182,     188
     202,     276,     256,     246,     231,     231,     204,     185
     161,     161,     159,     151,     146,     123,     130,     132
     144,     135,     125,     121,     146,     128,     132,     123
     117,     146,     114,     130,     135,     137,     137,     112
     108,     125,     132,     123,     132,     130,     121,     139
     142,     132,     130,     137,     159,     121,     144,     137
     144,     144,     161,     142,     130,     146,     142,     156
     119,     151,     137,     156,     185,     182,     164,     164
     188,     182,     149,     164,     156,     174,     210,     335
     282,     169,     222,     213,     164,     142,     144,     154
     146,     149,     154,     156,     137,     149,     161,     154
     149,     196,     204,     243,     237,     296,     369,     313
     210,     199,     231,     144,     159,     125,     121,     121
     117,     125,     130,     123,     117,     117,      92,     135
     130,     125,     137,     144,      96,     114,     130,     121
     128,     144,     121,     108,     104,     137,     130,     128
     119,     144,     142,     146,     161,     154,     139,     128
     137,     132,     161,     174,     169,     169,     164,     156
     137,     174,     149,     125,     123,     117,      98,     135
     139,     144,     125,     119,     139,     123,     125,     128
     121,     119,     123,     137,     112,     117,     130,     130
     110,     104,     142,     128,     137,     112,     121,     112
     117,     139,     121,     110,     144,     119,      96,     130
     128,     130,     121,     137,     144,     144,     123,     132
     125,     154,     156,     128,     112,     123,     128,     135
     137,     110,     137,     142,     156,     156,     149,     174
     174,     154,     172,     159,     151,     151,     135,     135
     161,     128,     108,     135,     112,     108,     132,     114
     132,     117,     123,     106,     112,     132,     137,     137
     110,     137,     137,     142,     142,     146,     123,     121
     137,     156,     132,     137,     166,     164,     164,     199
     199,     190,     237,     225,     246,     250,     228,     202
     169,     182,     166,     144,     135,     130,     144,     119
     121,     137,     135,     128,     137,     142,     130,     144
     146,     119,     121,     117,     142,     114,     117,     125
     114,     123,     104,     123,      98,     112,     142,     128
     137,     110,     137,     151,     123,     149,     164,     149
     172,     156,     151,     142,     139,     135,     123,     123
     114,     102,     130,     114,     108,     130,     130,     123
     114,     110,     125,     100,     123,     106,     128,     144
     146,     142,     164,     137,     130,     139,     137,     139
     112,     117,     119,     104,     106,     100,      98,     128
     114,     104,     139,     119,     123,      92,     117,     100
     119,     114,     104,     112,     104,     104,     106,     102
     108,      88,      98,     100,     108,     108,     108,      96
     106,      92,      98,      98,     106,      96,     106,      96
     112,     102,     121,     117,     112,     128,     117,     110
     114,     106,     114,     110,     106,      86,     106,     106
     119,     114,     106,      86,     106,     100,     104,     119
      98,     108,     114,      94,     110,     104,      96,     112
      88,     100,      88,     104,     108,     100,     106,     104
     100,      94,      85,      94,     114,     125,      88,      85
     100,      98,      92,      98,     108,     104,      92,      96
     100,     106,      94,     100,      96,      79,     112,      76
     100,      98,      92,      88,      83,      98,     102,      86
      90,     108,      83,     100,     108,     102,      98,      90
      85,     106,     106,      98,     112,      86,      92,      83
      85,     100,     104,      85,      94,     104,      98,     117
      83,     110,      90,     100,      96,      85,     110,     100
      92,      98,      98,      96,      90,     106,     104,      77
     110,      77,     102,      77,      96,      92,      85,     106
      94,      90,      79,      92,      90,     102,     110,     100
      83,      83,      90,     106,      83,      85,      81,      88
      88,      88,      77,      76,      96,      77,      88,      88
      86,      88,     100,      83,      90,     102,      90,      92
      76,      86,      92,      77,      86,      77,      92,      79
      88,      96,      86,      90,      88,      88,      90,      92
      98,      90,      77,      76,      72,      59,      90,      85
      86,      79,      77,      83,     102,      86,      90,      76
      90,      92,      79,      98,      92,      92,      86,      92
      85,      88,     102,      88,      88,      85,      88,      98
      96,      86,      83,      77,      88,      86,      83,      85
      90,      94,      86,      85,     108,      98,     102,     119
     123,     149,     139,     121,     146,     110,     121,     104
     144,     125,     106,     112,     102,      98,     110,     102
     121,     119,     100,     104,     102,      92,      90,     100
      94,     117,      85,      92,      94,      85,     104,      77
      92,      86,      79,      83,      81,      83,      92,     102
      98,      88,     108,      96,      98,     121,     132,     130
     104,     106,     106,      83,      96,      96,      96,     102
      88,     100,      90,      92,      94,      76,      94,      94
      92,      88,      85,     106,      83,      86,      76,      76
      69,      94,      69,      88,      79,      76,      77,      74
      86,      77,      88,      88,      94,      83,      83,      83
      77,      85,      90,      67,      67,      79,      92,      71
      96,      77,     102,      92,      86,      98,      86,     104
     123,      90,      98,      90,      90,      96,     117,     130
     156,     188,     146,     132,     108,     108,     144,     142
      88,      90,      77,      76,      81,      86,      79,      85
      79,      85,      79,      83,      85,      96,      83,      77
      77,      88,      71,     102,      81,      81,      92,      86
      71,      76,      92,      77,      92,      86,      77,      94
      94,      86,      83,      76,      74,     100,      81,      77
     106,      66,      72,      72,      67,      86,      81,      90
      88,      98,     102,      79,      77,      55,      96,      83
      76,      81,      79,      79,      85,      85,      83,      83
      92,      85,      86,      88,      90,      86,      94,      88
      86,     100,      86,      90,      94,      79,      76,      96
      86,      85,      90,     106,      83,      83,      90,      86
      77,      96,      83,     102,      83,      85,     100,      96
      83,      71,      88,      98,     100,      94,      98,     100
      98,      94,      94,     114,      98,     102,      92,     106
      88,     100,      94,      85,      76,      94,      94,     100
      92,     100,      90,      94,      92,      86,     121,      86
      92,      90,      72,      81,     110,     104,      96,      86
      76,      86,      88,      79,      77,      72,      88,      62
      79,      85,      85,      88,     102,      90,      92,      71
      56,      85,      86,      83,      76,      83,      74,      81
     100,      96,      90,      92,      96,      85,      77,      81
     108,      98,      90,      86,      92,      81,      96,      96
      77,      94,      79,      83,      77,      88,      86,      83
      96,      77,      83,      92,      94,      79,     106,     123
      79,     108,     108,      94,     102,     108,      90,      96
     108,     106,      72,      85,      88,      88,      85,      98
      76,      72,      83,     110,     102,      88,      94,      67
      88,      88,     112,      83,     100,      90,      79,     104
      86,      98,      90,     104,     112,     106,     108,     106
     121,     123,     137,     137,     119,     159,     169,     154
     130,     128,     119,     135,     108,     102,      85,     102
      88,      74,      85,      92,      96,      88,      77,      81
      83,      79,      85,      88,     108,      74,      98,      86
      86,      81,      90,      90,      83,      86,      88,      90
      85,      71,      88,      98,      67,      76,      85,      66
      71,      83,      74,      76,      85,      76,      85,      86
      96,      69,      85,      71,      79,      64,      86,      98
      98,      81,      66,      81,      81,      79,     100,      92
      79,      69,      88,     100,      79,      79,      79,      83
      74,      79,      90,      83,      98,      92,      72,      53
      90,      79,      83,      76,      85,      88,      88,     100
      86,      86,      81,      71,      79,      86,      79,      86
      85,      77,      90,      79,      90,      86,     104,      92
      85,      92,      98,      98,      86,      86,      76,      83
      94,      72,      77,      72,      77,      92,      67,      94
      83,      62,      72,      85,      79,      90,      76,      79
      83,      96,     100,      92,     100,      94,      83,      77
      83,      88,     104,      96,      94,      92,      79,      85
      92,      90,      88,      83,      71,     100,      83,      81
      77,      90,      98,      92,      90,      98,      71,      85
      96,      88,     106,      83,      76,      90,      76,      86
      98,      96,     139,     117,     110,      96,     119,      98
     102,      96,     108,      85,     102,     102,      81,      88
      81,      85,      86,      72,      94,      71,      69,      79
      83,      86,      92,      85,      85,      81,      88,      85
      98,      83,     102,      77,      92,      71,      72,      86
      86,      86,     108,      72,      79,      88,      92,      92
      83,      71,      85,      67,      76,      90,      79,      72
      96,      76,      77,      98,      88,      94,      92,     121
     121,      83,     102,      85,     104,      74,      86,     104
      86,      92,      77,      83,      88,      71,      94,      79
      85,      77,      96,      85,      90,      83,      83,      77
      85,      69,      79,      88,      76,      66,      94,      94
      81,      62,      83,      86,      79,      90,      90,      76
      71,      88,      72,      72,      74,      67,      83,      77
     104,      71,      79,      85,      86,      88,      88,      67
      86,      66,      85,      94,      71,      86,      77,      85
      85,      77,      86,      74,      76,      83,      66,      74
      83,      74,      66,      76,      76,      76,      76,      79
      72,      77,      81,      88,      83,      76,      77,      71
      69,      86,      83,      71,      79,      76,      90,      72
      71,      72,      83,      94,      77,      85,      71,      88
      85,      94,      85,      85,      83,      83,      94,      77
      66,      94,      79,      88,     108,      79,      86,      94
      85,      85,      86,      83,      77,      86,      76,      74
      79,      83,      72,      76,      86,      76,      79,      71
      81,      76,      88,      81,      90,      86,      90,      90
      85,      71,      86,      81,      79,      77,      76,      72
      79,      85,      92,      79,      92,     100,     102,      88
      86,      85,      67,      92,      55,      85,      85,      72
      71,      71,      83,      71,      90,      72,      74,      74
      74,      83,      90,      66,      86,      90,      67,      71
      71,      77,      71,      67,      85,      86,      71,      76
      76,      71,      81,      67,      72,      69,      76,      76
      66,      79,      66,      88,      61,      79,      83,      67
      56,      71,      76,      90,      72,      83,      67,      67
      58,      71,      61,      71,      76,      79,      76,      88
      74,      79,      76,      76,      83,      67,      64,      72
      64,      66,      59,      85,      66,      86,      69,      69
      71,      72,      59,      67,      72,      62,      77,      76
      83,      79,      69,      86,      79,      64,      67,      66
      56,      72,      59,      71,      71,      85,      71,      64
      66,      66,      71,      69,      74,      66,      64,      67
      64,      56,      62,      74,      71,      66,      67,      61
      76,      72,      71,      64,      62,      55,      69,      56
      76,      66,      67,      56,      58,      67,      85,      56
      71,      72,      77,      77,      59,      67,      58,      72
      69,      69,      79,      66,      64,      59,      74,      67
      48,      71,      79,      59,      61,      71,      85,      69
      77,      79,      67,      59,      56,      66,      72,      66
      79,      72,      50,      55,      45,      56,      67,      71
      56,      61,      71,      50,      59,      52,      53,      69
      67,      66,      56,      74,      64,      52,      67,      66
      85,      66,      53,      58,      58,      67,      58,      71
      66,      53,      50,      56,      66,      79,      56,      62
      61,      58,      61,      72,      71,      76,      72,      71
      62,      72,      62,      59,      76,      56,      79,      66
      64,      74,      67,      67,      56,      64,      71,      74
      66,      58,      59,      81,      72,      72,      62,      61
      79,      66,      67,      50,      69,      90,      67,      62
      61,      67,      67,      67,      62,      59,      53,      69
      79,      67,      76,      81,      74,      67,      71,      62
      79,      56,      69,      62,      56,      83,      72,      79
      85,      67,      66,      56,      69,      53,      79,      64
      67,      67,      69,      71,      64,      59,      59,      71
      56,      59,      72,      61,      66,      79,      71,      77
      86,      67,      71,      74,      67,      71,      71,      85
      69,      66,      72,      69,      66,      66,      76,      62
      76,      71,      67,      64,      71,      77,      67,      66
      67,      76,      59,      62,      69,      71,      72,      69
      86,      72,      83,      79,      67,/
