SampleIdent,zeolite 15.3.95,/
Title1,Philips Analytical,/
Title2,PC-APD, Diffraction software,/
DiffrType,PW3710,/
DiffrNumber,1,/
Anode,Cu,/
LabdaAlpha1, 1.54060,/
LabdaAlpha2, 1.54439,/
RatioAlpha21, 0.50000,/
DivergenceSlit,Fixed,1,/
ReceivingSlit,0.1,/
MonochromatorUsed,NO  ,/
GeneratorVoltage,  40,/
TubeCurrent,  30,/
FileDateTime,15-Mar-1995  9:38,/
DataAngleRange,   2.0000,  69.9600,/
ScanStepSize,   0.040,/
ScanType,CONTINUOUS,/
ScanStepTime,    1.00,/
RawScan
     467,     454,     384,     369,     384,     335,     376,     342
     317,     320,     310,     310,     282,     276,     259,     276
     253,     262,     269,     246,     269,     243,     243,     243
     243,     202,     196,     210,     216,     199,     210,     213
     185,     216,     161,     185,     182,     185,     180,     190
     188,     185,     188,     169,     182,     164,     154,     166
     156,     149,     164,     159,     156,     159,     149,     164
     159,     149,     137,     159,     149,     154,     139,     142
     154,     123,     128,     142,     139,     135,     149,     123
     117,     144,     128,     125,     100,     137,     130,     130
     106,     123,      98,     123,     114,     139,     112,     114
     128,     114,      94,      85,     121,     119,     121,     104
     106,     125,     139,     106,     114,     110,      98,      90
     104,      98,     119,      94,     106,     117,     106,      94
     121,     104,      96,      92,     100,      94,     100,      96
      96,      86,      94,     114,      92,     106,     102,      96
      86,     104,      88,      88,      85,      83,      81,      98
      83,      85,      79,      88,      76,      86,      79,      88
      85,      79,      92,      77,      74,      77,      74,      90
      67,      62,      86,     100,      83,      88,      85,      74
      77,      77,      71,      86,      72,      59,      66,      88
      71,      79,      79,      76,      79,      59,      86,      86
      86,      79,      83,      79,      74,      94,      62,      76
      96,      86,     104,     112,     125,     156,     156,     196
     240,     279,     299,     240,     142,     112,      92,      83
      66,      52,      71,      67,      52,      66,      50,      46
      64,      53,      50,      48,      58,      55,      50,      61
      64,      50,      69,      38,      67,      61,      55,      59
      67,      72,      96,     130,     130,     104,      71,      55
      56,      55,      50,      44,      61,      50,      48,      41
      48,      50,      45,      50,      53,      53,      53,      53
      55,      31,      42,      55,      56,      42,      41,      59
      64,      67,      58,      56,      44,      32,      44,      53
      50,      50,      56,      50,      50,      61,      53,      61
      62,      66,      86,      94,      66,      64,      76,      92
      85,      85,      85,      96,      72,      64,      67,      67
      49,      74,      77,      69,      64,      67,      67,      66
      94,      67,      59,      59,      52,      32,      49,      32
      36,      50,      59,      34,      48,      34,      34,      36
      48,      32,      40,      49,      32,      45,      48,      32
      42,      50,      53,      48,      48,      52,      61,      59
      53,      48,      55,      44,      40,      35,      45,      37
      41,      53,      44,      37,      38,      52,      45,      52
      48,      48,      45,      37,      32,      46,      37,      36
      56,      48,      32,      40,      32,      49,      49,      48
      66,      50,      61,      67,      67,      50,      66,      76
      90,     130,     137,     139,     104,      77,      53,      79
      66,      62,      72,      96,     102,      98,      92,      74
      67,      66,      58,      49,      48,      48,      40,      46
      38,      32,      31,      41,      48,      46,      35,      46
      41,      44,      42,      45,      50,      44,      29,      29
      40,      32,      41,      32,      37,      50,      48,      46
      61,      53,      59,      76,      85,     121,     142,     144
     128,      92,      76,      48,      53,      45,      50,      56
      53,      53,      55,      67,      62,      69,      67,      71
      77,      79,      83,      86,     110,      98,      85,      96
      86,      72,      72,      71,      74,      66,      94,      88
      88,      83,     108,      98,     104,      76,      90,      83
      90,     106,     139,     177,     250,     353,     543,     713
     566,     339,     190,     169,     123,     100,      94,     104
      90,      74,      77,      56,      72,      62,      85,      79
      64,      72,      79,      81,      74,      85,     100,     130
     135,     188,     256,     331,     380,     400,     388,     428
     467,     462,     441,     480,     497,     400,     369,     299
     303,     346,     350,     328,     253,     180,     177,     130
     108,     114,     121,     119,     121,     121,     114,     102
     112,      96,      88,      83,      86,     112,     130,     154
     166,     222,     213,     266,     250,     219,     210,     169
     137,     121,     121,     119,     110,     110,     128,     142
     125,     128,     123,     128,     130,     128,     135,     117
     121,      92,      90,     100,      90,     102,      96,      77
      77,      86,     102,     121,     130,     159,     144,      79
     104,     117,      88,     108,     104,     132,     104,      88
     112,     100,     121,     149,     149,     240,     253,     213
     213,     216,     213,     222,     246,     225,     210,     190
     169,     161,     166,     207,     225,     199,     199,     193
     196,     276,     342,     462,     790,    1296,    2134,    3091
    2970,    2116,    1170,     552,     372,     346,     262,     237
     250,     213,     213,     228,     207,     174,     146,     144
     164,     142,     164,     207,     292,     335,     324,     331
     310,     353,     471,     534,     529,     502,     480,     488
     562,     552,     484,     372,     320,     231,     210,     193
     202,     216,     225,     216,     213,     188,     154,     104
     104,      94,      88,      90,      90,      98,     106,     104
      98,      92,      86,      96,      94,      59,      79,      79
      76,      90,      86,      98,      94,     112,     128,     149
     164,     185,     243,     216,     246,     313,     331,     342
     357,     279,     279,     231,     199,     188,     144,     166
     159,     161,     151,     164,     172,     151,     135,     182
     146,     144,     102,     108,      98,      88,     121,     139
     142,     144,     121,      86,      94,      85,      81,      67
      62,      62,      76,      77,      72,      66,      85,      83
      79,     102,      90,      85,      76,     117,     137,     139
     190,     172,     185,     161,     149,      88,      96,      66
      58,      96,      56,      66,      83,      94,     130,     119
     121,     125,     132,     114,     106,      98,      86,      66
      76,      59,      58,      53,      61,      48,      59,      56
      61,      61,      76,      50,      86,      66,      86,      74
      64,      52,      62,      59,      49,      50,      53,      44
      44,      50,      61,      55,      58,      66,      49,      53
      66,      53,      62,      53,      58,      66,      59,      67
      72,      77,      90,      88,      76,      76,      79,      79
     110,     106,     106,     121,     144,     121,     144,     128
     139,     144,     144,     132,     114,     137,     121,     135
     104,      92,     114,     104,     121,     164,     169,     142
     151,     110,      77,      90,      90,      96,      96,      96
     106,      79,      98,      79,      94,      81,      72,      83
     100,     102,     119,     144,     164,     182,     328,     396
     306,     253,     169,     144,     119,     123,     112,      88
      88,      90,      96,      98,     100,      83,      98,      71
      83,      76,      79,      76,      81,      79,      83,      59
      76,      83,      81,      77,      77,      72,      71,      72
      83,      72,      69,      77,      74,      77,      66,      66
      76,      66,      98,      88,      96,     104,      92,      90
      67,      50,      53,      59,      59,      53,      62,      53
      59,      59,      55,      52,      64,      49,      66,      50
      71,      53,      66,      69,      66,     100,     146,     196
     259,     202,     156,     144,      96,      76,      71,      53
      66,      67,      61,      48,      48,      64,      55,      44
      62,      72,      69,      96,     130,     123,     117,     100
      67,      62,      71,      67,      53,      74,      62,      66
      50,      59,      45,      44,      59,      59,      59,      59
      67,      64,      59,      59,      59,      66,      52,      44
      48,      49,      59,      62,      50,      67,      85,      69
      83,      79,      77,      86,      64,      71,      53,      81
      74,      50,      76,      71,      76,      90,     100,      96
     135,     159,     222,     243,     188,     172,     139,      86
      90,      92,      85,      74,      62,      79,      85,      71
      76,      77,      76,      69,      74,      52,      74,      72
      64,      62,      53,      53,      59,      48,      45,      64
      38,      50,      50,      58,      59,      62,      48,      50
      55,      41,      44,      46,      56,      64,      45,      48
      44,      48,      40,      50,      42,      56,      44,      64
      62,      66,      64,      72,      62,      58,      71,      48
      56,      66,      72,      61,      79,      62,      62,      52
      59,      56,      53,      62,      53,      62,      49,      69
      79,      72,      71,      64,      85,     110,     137,     139
     112,     132,     108,      94,      83,      85,      76,      69
      72,      69,      50,      61,      67,      53,      66,      79
      59,      59,      56,      79,      62,      49,      58,      67
      62,      46,      64,      74,      59,      72,      67,      67
      67,      48,      49,      49,      74,      45,      52,      48
      55,      53,      58,      61,      48,      46,      62,      55
      38,      44,      52,      45,      56,      46,      48,      53
      44,      48,      38,      58,      56,      56,      49,      71
      49,      66,      56,      45,      48,      58,      40,      45
      35,      52,      42,      46,      48,      62,      50,      61
      55,      50,      55,      72,      64,      59,      71,      67
      81,      50,      48,      48,      56,      67,      69,      67
      79,      83,     100,      98,     108,     102,     114,     137
     196,     279,     420,     384,     303,     266,     225,     188
     130,      81,      67,      67,      74,      72,      83,      77
     104,     100,     102,      88,      86,     121,     104,      86
      83,      79,      86,      83,      76,      90,      92,      85
      92,      98,     100,      98,      79,      76,      69,      71
      67,      56,      50,      66,      40,      67,      66,      66
      49,      59,      74,      58,      50,      50,      44,      44
      48,      59,      83,      66,      67,      69,      64,      67
      66,      72,      56,      48,      56,      48,      44,      44
      50,      61,      55,      50,      50,      46,      58,      62
      46,      59,      59,      46,      72,      56,      49,      56
      56,      55,      52,      52,      74,      62,      67,      64
      56,      71,      71,      71,      56,      71,      76,      61
      64,      48,      42,      72,      50,      44,      56,      52
      49,      56,      59,      49,      48,      77,      88,      96
     121,     135,     151,     130,     117,     119,      83,      71
      67,      86,      88,      83,     121,      86,      88,      90
      67,      66,      62,      49,      56,      55,      46,      56
      50,      58,      48,      48,      58,      62,      53,      53
      40,      50,      59,      40,      35,      44,      56,      53
      61,      46,      64,      72,      56,      53,      59,      59
      58,      69,      42,      50,      44,      38,      44,      55
      40,      52,      38,      59,      59,      59,      62,      53
      50,      52,      56,      50,      40,      53,      59,      58
      59,      62,      67,      55,      56,      59,      41,      50
      45,      55,      45,      46,      38,      41,      59,      40
      42,      50,      34,      58,      49,      62,      49,      53
      50,      50,      59,      59,      55,      55,      44,      48
      61,      50,      46,      44,      48,      41,      49,      50
      37,      49,      46,      44,      30,      59,      53,      48
      62,      46,      52,      85,      77,     100,     166,     202
     231,     210,     137,     151,     156,     132,      88,      72
      66,      64,      56,      49,      46,      59,      56,      49
      37,      49,      56,      59,      46,      53,      49,      32
      37,      37,      49,      38,      49,      49,      45,      48
      48,      46,      41,      48,      53,      48,      59,      56
      58,      79,      66,      53,      69,      56,      76,      76
      88,      72,      69,      88,      79,      74,      76,      81
      76,      79,      59,      79,      77,      71,      81,      67
      67,      79,      66,      83,      58,      46,      52,      71
      59,      55,      46,      44,      58,      34,      48,      67
      71,      49,      46,      58,      45,      44,      50,      59
      52,      50,      46,      49,      56,      50,      62,      61
      56,      62,      71,      76,      90,      98,      96,      79
      98,      79,      90,      66,      71,      62,      62,      48
      67,      66,      61,      59,      53,      56,      59,      48
      67,      59,      66,      76,      72,      66,      79,      62
      48,      56,      59,      62,      56,      64,      48,      58
      56,      66,      66,      66,      61,      55,      64,      56
      56,      59,      71,      66,      66,      62,      59,      53
      38,      34,      56,      44,      50,      38,      55,      58
      46,      34,      50,      48,      40,      48,      44,      41
      44,      46,      50,      48,      50,      53,      50,      56
      48,      53,      50,      41,      48,      44,      46,      38
      50,      41,      59,      49,      58,      61,      53,      76
     102,     108,     169,     174,     149,     125,     130,     130
     164,     144,     149,     164,     231,     256,     185,     174
     222,     207,     207,     159,     123,     130,     114,      92
      72,      79,      72,      67,      55,      61,      71,      53
      71,      53,      56,      56,      45,      50,      41,      49
      49,      53,      67,      53,      49,      53,      59,      59
      55,      62,      48,      61,      66,      59,      59,      56
      66,      56,      45,      50,/
