SampleIdent,sample1,/
Title1, Convert v.3.02a,/
Title2,sample1,/
DiffrType,PW3710,/
DiffrNumber,1,/
Anode, Cu,/
LabdaAlpha1, 1,54060,/
LabdaAlpha2, 1,54439,/
RatioAlpha21, 0,50000,/
DivergenceSlit,Fixed,1,/
ReceivingSlit,0.1,/
MonochromatorUsed,NO  ,/
GeneratorVoltage,  40,/
TubeCurrent,  20,/
FileDateTime,21-janv-2002 09:16:36,/
DataAngleRange,  10.0000,  43.9200,/
ScanStepSize,   0.020,/
ScanType,STEP,/
ScanStepTime,    5.00,/
RawScan
    1048,    1162,    1108,    1163,    1071,    1057,    1055,     973
    1000,    1031,    1068,    1015,     983,    1028,    1030,    1019
    1065,    1016,    1022,    1033,    1033,     974,    1088,    1000
     979,    1024,     968,     923,    1022,     953,    1030,     915
     989,     953,     959,     947,     953,     877,     967,     836
     896,     842,     896,     861,     877,     862,     869,     838
     896,     824,     893,     826,     859,     858,     824,     816
     796,     826,     787,     813,     814,     765,     793,     760
     804,     711,     752,     782,     785,     721,     747,     755
     709,     731,     748,     750,     744,     738,     704,     682
     642,     737,     714,     665,     655,     649,     652,     651
     661,     662,     669,     612,     640,     679,     632,     646
     636,     606,     608,     618,     585,     613,     609,     599
     573,     611,     565,     551,     529,     512,     553,     578
     530,     516,     503,     531,     536,     502,     495,     518
     459,     485,     491,     485,     476,     439,     464,     485
     459,     423,     423,     451,     427,     425,     462,     437
     453,     417,     405,     392,     405,     429,     428,     413
     406,     380,     389,     400,     402,     361,     397,     396
     398,     371,     395,     396,     417,     401,     416,     389
     395,     432,     421,     441,     428,     405,     384,     458
     436,     373,     370,     353,     327,     373,     315,     351
     314,     325,     327,     329,     328,     289,     307,     321
     334,     326,     337,     327,     341,     306,     339,     332
     315,     314,     343,     345,     300,     329,     322,     317
     348,     329,     292,     306,     309,     330,     323,     319
     333,     342,     313,     289,     306,     304,     308,     309
     289,     319,     281,     301,     306,     322,     297,     293
     273,     275,     303,     287,     297,     297,     302,     287
     292,     303,     266,     305,     265,     290,     287,     295
     291,     283,     319,     267,     286,     280,     257,     292
     288,     263,     307,     305,     286,     295,     274,     284
     298,     258,     313,     278,     285,     278,     275,     328
     292,     277,     293,     261,     273,     249,     284,     296
     246,     278,     286,     263,     258,     272,     291,     248
     284,     233,     278,     255,     266,     252,     235,     261
     289,     259,     260,     291,     292,     258,     301,     317
     283,     327,     287,     342,     352,     381,     398,     436
     467,     473,     537,     574,     591,     721,     865,    1047
    1411,    1495,    1890,    1964,    1849,    1667,    1375,    1044
     813,     597,     533,     442,     405,     339,     340,     312
     280,     295,     287,     297,     277,     251,     279,     292
     280,     262,     274,     254,     246,     240,     282,     267
     280,     243,     263,     234,     255,     242,     246,     243
     248,     273,     244,     229,     243,     260,     241,     239
     250,     245,     268,     237,     266,     236,     230,     244
     222,     260,     251,     231,     245,     270,     277,     239
     233,     246,     260,     237,     279,     296,     287,     277
     312,     344,     370,     377,     437,     463,     619,     726
     940,    1175,    1441,    1370,    1340,    1120,     823,     621
     539,     402,     405,     365,     358,     335,     309,     328
     378,     402,     413,     420,     512,     585,     764,     937
    1301,    1712,    2162,    2618,    2673,    2414,    1896,    1484
    1075,     761,     595,     474,     386,     355,     310,     306
     265,     244,     297,     257,     257,     239,     241,     246
     235,     224,     239,     227,     239,     209,     251,     244
     227,     223,     208,     230,     216,     240,     209,     264
     252,     231,     267,     236,     267,     239,     259,     253
     250,     254,     238,     237,     251,     223,     233,     222
     234,     220,     220,     243,     235,     227,     227,     244
     208,     239,     218,     248,     221,     228,     233,     212
     201,     208,     237,     221,     185,     239,     216,     237
     240,     241,     234,     243,     265,     259,     233,     255
     295,     246,     291,     306,     326,     327,     415,     404
     454,     517,     641,     729,    1069,    1359,    1690,    2239
    2803,    3021,    2978,    2771,    2249,    1886,    1374,    1056
     794,     635,     539,     402,     404,     394,     314,     313
     269,     249,     252,     232,     227,     184,     236,     187
     216,     220,     229,     235,     234,     232,     246,     236
     269,     264,     300,     324,     366,     433,     542,     724
     833,    1112,    1250,    1230,    1129,     996,     785,     595
     480,     405,     298,     307,     267,     238,     205,     251
     232,     197,     204,     201,     199,     215,     202,     189
     212,     184,     206,     191,     199,     195,     206,     176
     182,     199,     216,     171,     203,     197,     183,     194
     193,     182,     172,     183,     173,     200,     166,     164
     191,     184,     203,     196,     197,     200,     192,     206
     216,     191,     191,     193,     164,     176,     183,     202
     204,     173,     208,     163,     180,     202,     188,     188
     190,     192,     181,     184,     193,     183,     182,     190
     195,     175,     178,     197,     190,     205,     212,     201
     225,     191,     186,     208,     218,     228,     206,     225
     187,     221,     189,     197,     202,     181,     173,     191
     190,     184,     187,     213,     185,     189,     179,     199
     186,     189,     185,     213,     169,     163,     189,     199
     213,     194,     185,     197,     190,     197,     192,     196
     215,     218,     235,     220,     231,     196,     217,     217
     213,     199,     224,     218,     220,     207,     220,     211
     229,     220,     252,     243,     256,     285,     291,     280
     290,     284,     282,     313,     299,     307,     351,     375
     429,     491,     573,     719,     922,    1281,    1853,    2606
    3382,    4196,    4391,    4088,    3522,    2733,    2081,    1483
     936,     753,     614,     492,     404,     399,     332,     300
     326,     310,     268,     261,     245,     226,     236,     224
     230,     210,     211,     234,     225,     201,     211,     229
     202,     232,     205,     216,     193,     216,     229,     245
     228,     214,     215,     201,     214,     207,     190,     224
     225,     220,     219,     240,     225,     234,     225,     274
     276,     261,     284,     275,     288,     309,     344,     308
     346,     339,     417,     415,     443,     552,     604,     657
     749,     945,    1131,    1327,    1878,    2577,    3594,    5005
    6997,    8886,   10027,    9936,    9126,    8013,    6449,    4848
    3449,    2411,    1762,    1328,    1080,     901,     750,     730
     639,     573,     553,     529,     505,     483,     459,     404
     389,     353,     327,     298,     288,     272,     295,     231
     245,     255,     261,     260,     264,     219,     257,     242
     262,     206,     208,     274,     220,     236,     212,     235
     240,     251,     260,     214,     244,     249,     265,     233
     275,     242,     307,     286,     305,     286,     329,     316
     370,     399,     474,     583,     662,     883,     970,     994
    1050,    1065,    1038,    1031,    1048,    1068,    1187,    1412
    1615,    1927,    2626,    3806,    5355,    7863,   10950,   13771
   15559,   15429,   13800,   11860,    9501,    7293,    5060,    3394
    2422,    1830,    1483,    1226,    1004,     850,     806,     816
     732,     733,     657,     620,     561,     479,     436,     395
     394,     355,     357,     314,     308,     336,     287,     334
     350,     332,     321,     343,     361,     325,     340,     359
     381,     407,     430,     403,     410,     439,     474,     539
     666,     795,    1030,    1373,    1866,    2190,    2716,    2648
    2496,    2263,    2123,    1666,    1365,    1128,     869,     713
     603,     503,     487,     430,     354,     381,     296,     307
     296,     283,     275,     284,     280,     266,     258,     252
     259,     280,     282,     301,     299,     319,     348,     330
     336,     367,     420,     421,     449,     432,     503,     569
     658,     784,     982,    1100,    1441,    1934,    2507,    3178
    3847,    4129,    4370,    4150,    4061,    3787,    3611,    3542
    3892,    4511,    5840,    7649,    9240,   10345,   10150,    9391
    8179,    6956,    5584,    4096,    2798,    2144,    1537,    1148
     959,     847,     720,     652,     545,     508,     460,     396
     400,     338,     319,     311,     290,     354,     281,     285
     281,     285,     284,     273,     241,     246,     254,     236
     223,     200,     214,     192,     195,     209,     205,     171
     173,     183,     176,     162,     171,     196,     183,     171
     162,     159,     161,     190,     173,     160,     171,     167
     169,     192,     181,     162,     160,     165,     165,     162
     178,     174,     161,     133,     154,     172,     149,     135
     154,     165,     152,     160,     145,     154,     181,     141
     149,     144,     170,     144,     161,     151,     159,     163
     160,     164,     160,     152,     156,     171,     176,     177
     146,     176,     173,     185,     157,     178,     187,     171
     191,     208,     195,     171,     202,     191,     215,     229
     228,     224,     276,     276,     290,     304,     373,     404
     440,     523,     499,     642,     825,     975,    1206,    1570
    1934,    2253,    2466,    2572,    2524,    2480,    2266,    1909
    1686,    1399,    1158,     965,     794,     616,     557,     509
     417,     432,     349,     311,     265,     277,     248,     242
     219,     168,     190,     232,     189,     196,     175,     183
     190,     177,     156,     159,     158,     176,     158,     189
     148,     189,     168,     167,     149,     157,     167,     168
     153,     143,     138,     157,     165,     141,     150,     155
     157,     148,     119,     157,     149,     158,     142,     176
     138,     171,     126,     164,     155,     154,     154,     167
     142,     147,     143,     181,     155,     162,     138,     160
     165,     159,     165,     188,     163,     175,     171,     173
     194,     160,     176,     212,     199,     185,     184,     198
     186,     214,     168,     188,     211,     237,     275,     272
     290,     306,     335,     410,     474,     472,     591,     677
     825,     975,    1249,    1479,    1969,    2269,    2483,    2541
    2536,    2418,    2263,    1968,    1778,    1466,    1304,    1007
     867,     692,     604,     566,     496,     471,     415,     381
     353,     364,     373,     353,     338,     372,     399,     463
     512,     655,     802,    1059,    1242,    1366,    1570,    1520
    1355,    1221,    1122,    1048,     844,     718,     587,     477
     436,     406,     410,     455,     501,     661,     763,     932
    1008,     961,     975,     909,     887,     807,     660,     555
     527,     384,     369,     326,     264,     240,     238,     223
     187,     197,     188,     172,     175,     163,     175,     151
     169,     165,     162,     181,     183,     164,     161,     163
     171,     176,     171,     243,     270,     284,     347,     438
     471,     529,     591,     556,     548,     515,     489,     412
     381,     323,     279,     246,     234,     184,     172,     171
     169,     156,     128,     149,     149,     127,     136,     142
     137,     142,     127,     133,     149,     121,     126,     142
     115,     125,     170,     143,     140,     130,     147,     137
     149,     149,     155,     157,     142,     160,     136,     134
     121,     160,     124,     147,     151,     138,     149,     122
     146,     136,     144,     158,     146,     157,     162,     163
     183,     182,     190,     192,     203,     253,     277,     381
     386,     457,     509,     529,     520,     546,     463,     474
     454,     410,     322,     304,     263,     254,     225,     206
     215,     202,     209,     162,     164,     168,     184,     150
     161,     170,     157,     174,     154,     137,     149,     150
     147,     142,     131,     143,     166,     159,     176,     149
     131,     156,     166,     147,     138,     175,     190,     199
     182,     176,     215,     191,     240,     285,     290,     353
     392,     438,     387,     411,     420,     455,     474,     553
     645,     798,    1027,    1321,    1731,    1953,    1971,    1884
    1752,    1509,    1414,    1292,    1128,     821,     633,     531
     433,     358,     346,     362,     329,     313,     339,     327
     364,     345,     425,     422,     488,     528,     626,     803
     921,    1191,    1540,    2042,    2305,    2589,    2905,    2981
    3049,    2963,    2873,    2615,    2360,    1988,    1699,    1541
    1225,    1028,     871,     711,     598,     550,     485,     448
     409,     362,     331,     342,     313,     314,     286,     250
     236,     257,     259,     272,     261,     266,     279,     297
     289,     352,     389,     459,     548,     719,     930,    1199
    1399,    1500,    1551,    1364,    1265,    1239,    1198,    1051
     933,     768,     639,     613,     492,     427,     408,     424
     405,     441,     488,     478,     466,     438,     383,     419
     377,     326,     279,     239,     236,     213,     197,     193
     174,     163,     196,     172,     165,     171,     167,     129
     179,     142,     156,     159,     137,     140,     159,     166
     122,     163,     165,     164,     202,     179,     206,     211
     202,     200,     228,     200,     196,     163,     179,     199
     185,     172,     151,     152,     175,     151,     150,     137
     139,     137,     146,     137,     134,     146,     120,     137
     138,     135,     142,     140,     141,     150,     170,     167
     165,     167,     173,     197,     232,     246,     290,     314
     380,     344,     335,     305,     295,     314,     293,     248
     245,     203,     200,     188,     161,     172,     183,     169
     151,     149,     149,     153,     173,     161,     173,     166
     211,     191,     186,     224,     194,     205,     208,     232
/
